398149,506,32.55
398164,510,33.19
398179,504,31.58
398194,505,32.87
398209,505,31.26
398224,509,32.23
398239,508,32.55
398254,507,32.23
398269,506,32.55
398284,511,31.26
398299,509,32.55
398314,505,30.94
398329,504,31.26
398344,511,31.90
398359,510,32.55
398374,504,32.55
398389,506,32.55
398404,508,32.87
398419,508,30.94
398434,512,32.23
398449,512,32.23
398464,516,30.94
398479,519,30.94
398494,526,32.87
398509,521,31.26
398524,526,33.19
398539,519,32.87
398554,520,32.55
398569,515,31.26
398584,515,32.87
398599,512,32.55
398614,513,32.55
398629,516,32.55
398644,513,32.55
398659,511,32.55
398674,514,33.19
398689,512,32.55
398704,508,32.55
398719,509,32.55
398734,508,32.87
398749,507,32.87
398764,505,31.26
398779,514,31.26
398794,516,32.55
398809,515,32.55
398824,513,32.55
398839,510,32.55
398854,503,31.58
398869,505,31.26
398884,505,32.55
398899,502,30.94
398914,506,32.55
398929,502,32.55
398944,505,32.87
398959,507,32.23
398974,508,31.26
398989,500,31.90
399004,504,33.19
399020,503,32.23
399035,504,32.55
399050,505,32.55
399065,505,32.23
399080,502,31.58
399095,507,32.23
399111,510,31.58
399126,503,32.55
399141,503,32.55
399156,508,32.23
399171,508,32.23
399186,507,32.55
399202,506,32.23
399218,501,32.23
399233,501,33.19
399249,516,33.19
399265,514,32.55
399280,520,30.94
399296,522,32.55
399311,524,32.55
399327,521,32.23
399343,520,30.94
399359,522,32.55
399375,518,32.55
399391,516,32.55
399406,514,32.23
399422,514,31.58
399438,510,32.55
399453,511,31.26
399469,505,32.55
399485,508,30.94
399500,499,31.58
399516,503,30.94
399531,511,31.90
399547,512,32.23
399562,513,32.55
399578,515,32.55
399594,514,31.58
399610,513,32.55
399626,514,31.90
399642,506,32.23
399658,512,32.55
399674,510,32.87
399690,503,31.58
399705,508,31.90
399721,504,31.58
399737,510,31.90
399753,507,32.55
399769,506,32.87
399785,505,32.87
399800,504,32.23
399816,505,32.87
399831,507,32.55
399846,504,32.23
399861,501,32.87
399877,507,30.94
399893,507,30.94
399909,510,32.55
399924,510,31.90
399939,507,31.58
399954,508,32.55
399969,504,30.62
399984,506,31.90
400000,510,30.94
400015,513,32.55
400031,515,32.87
400046,518,32.87
400062,517,31.26
400078,515,32.55
400093,522,32.55
400109,519,32.55
400124,518,32.55
400140,516,32.55
400156,516,32.87
400172,514,32.55
400187,507,32.23
400202,510,31.58
400217,508,32.55
400232,509,32.55
400247,510,32.23
400262,513,32.23
400277,512,32.87
400292,510,30.94
400307,512,31.58
400322,512,31.90
400337,511,31.26
400352,507,31.26
400368,509,30.94
400383,507,31.90
400398,508,32.55
400413,505,31.26
400428,511,33.19
400443,510,32.55
400458,510,31.58
400473,511,32.23
400489,502,32.55
400504,500,31.90
400519,507,32.87
400534,506,32.87
400549,506,32.87
400564,505,32.23
400579,507,32.87
400594,508,32.87
400609,511,32.23
400624,502,32.55
400639,501,32.55
400654,509,32.55
400669,506,32.23
400684,503,31.26
400699,511,31.58
400714,512,32.55
400729,507,31.90
400744,512,31.26
400759,515,31.58
400774,523,32.55
400789,523,31.26
400804,520,32.55
400819,518,31.26
400834,516,32.55
400849,508,32.55
400864,515,32.55
400879,516,32.87
400894,507,31.26
400909,506,32.87
400924,514,32.55
400939,508,31.26
400954,509,32.55
400969,509,32.87
400984,503,32.55
400999,502,30.94
401014,512,32.23
401029,510,32.23
401044,512,32.55
401059,512,31.90
401074,514,31.58
401089,513,31.90
401104,510,32.87
401119,504,30.94
401134,510,32.55
401149,507,32.55
401164,509,32.87
401179,511,32.55
401194,509,32.55
401209,509,32.55
401224,509,31.26
401239,508,30.94
401254,508,32.55
401269,505,32.55
401284,504,32.23
401299,503,32.87
401314,501,32.55
401329,507,32.55
401344,501,31.90
401359,507,32.87
401374,510,32.55
401389,510,32.23
401404,507,31.58
401419,515,32.87
401434,514,32.87
401449,513,32.87
401464,518,32.87
401479,522,31.58
401494,523,32.55
401509,523,32.87
401524,520,32.55
401539,510,32.55
401554,510,31.26
401569,511,32.55
401584,511,31.58
401599,506,32.23
401614,507,31.26
401629,510,31.26
401644,512,32.55
401659,512,32.87
401674,506,32.55
401689,515,31.26
401704,511,32.23
401719,512,31.58
401734,512,32.55
401749,511,32.87
401764,509,32.55
401779,507,32.55
401794,513,32.55
401809,508,30.62
401824,508,31.58
401839,507,31.26
401854,511,32.55
401869,508,32.55
401884,506,33.19
401899,506,32.55
401914,507,32.23
401929,509,32.55
401944,503,31.58
401959,509,32.55
401974,505,32.87
401989,503,32.55
402004,509,32.55
402019,508,31.58
402034,504,31.90
402049,508,32.87
402064,507,32.55
402079,509,32.55
402094,507,32.55
402109,517,32.55
402124,520,32.87
402139,520,32.23
402154,522,32.23
402169,519,31.26
402184,512,32.87
402199,516,32.55
402214,514,32.87
402229,516,32.55
402244,512,31.58
402259,518,32.87
402274,515,32.87
402289,514,32.55
402304,513,32.55
402319,509,33.19
402334,501,32.23
402349,508,32.87
402364,510,32.23
402379,512,32.87
402394,510,32.55
402409,507,32.55
402424,507,31.58
402439,514,32.87
402454,506,31.90
402469,512,32.55
402484,506,31.90
402499,504,31.26
402514,508,32.87
402529,510,32.55
402544,503,31.90
402559,509,32.23
402574,509,31.26
402589,509,32.55
402604,504,32.55
402619,508,32.87
402634,503,32.23
402649,508,32.87
402664,508,32.55
402679,508,31.58
402694,503,32.55
402709,510,32.23
402724,509,31.26
402739,510,32.55
402754,508,32.55
402769,509,32.23
402784,507,31.26
402799,510,31.58
402814,512,32.55
402829,516,32.23
402844,519,32.55
402859,516,32.55
402874,524,32.87
402889,519,32.23
402904,520,32.55
402919,522,32.23
402934,519,31.26
402949,515,32.55
402964,511,30.94
402979,515,33.52
402994,512,32.55
403009,516,32.55
403024,512,31.26
403039,513,32.55
403054,512,32.23
403069,511,32.55
403084,511,32.55
403099,514,32.55
403114,512,32.55
403129,512,30.94
403144,514,33.19
403159,516,32.23
403174,516,32.55
403189,515,32.87
403204,515,32.87
403219,510,31.26
403234,516,32.87
403249,508,31.90
403264,502,31.26
403279,510,32.23
403294,509,32.87
403309,509,32.87
403324,512,32.55
403339,509,32.87
403354,510,32.23
403369,504,32.23
403384,505,30.94
403399,501,31.58
403414,505,32.55
403429,507,32.55
403444,505,33.19
403459,501,32.87
403474,507,31.58
403489,513,30.94
403504,515,32.55
403519,513,32.55
403534,510,32.23
403549,511,32.55
403564,519,32.87
403579,518,32.87
403594,520,32.87
403609,513,32.55
403624,524,32.87
403639,520,33.19
403654,515,32.23
403669,513,32.23
403684,508,30.94
403699,507,31.58
403714,504,31.26
403729,503,31.90
403744,504,32.55
403759,510,32.55
403774,508,30.94
403789,509,30.94
403804,507,30.94
403819,507,30.62
403834,509,32.23
403849,511,32.23
403864,511,32.55
403879,512,33.52
403894,504,31.26
403909,515,32.55
403924,509,30.62
403939,507,31.26
403954,510,32.87
403969,502,31.90
403984,504,32.87
403999,504,31.26
404014,501,31.26
404029,504,32.55
404044,502,32.55
404059,506,32.55
404074,503,31.58
404089,503,32.55
404104,506,31.26
404119,500,31.26
404134,500,31.58
404149,506,32.87
404164,506,31.90
404179,509,32.87
404194,509,31.26
404209,512,32.87
404224,512,32.87
404239,517,32.55
404254,514,30.94
404269,516,32.87
404284,516,32.55
404299,518,32.23
404314,512,32.55
404329,522,32.55
404344,517,31.26
404359,523,32.23
404374,520,32.87
404389,511,32.55
404404,510,31.58
404419,515,31.26
404434,504,31.90
404449,506,30.94
404464,509,32.87
404479,504,32.55
404494,514,32.87
404509,507,32.55
404524,516,32.87
404539,515,32.55
404554,514,31.26
404569,501,32.55
404584,507,31.58
404599,510,32.55
404614,504,31.26
404629,512,32.87
404644,513,32.23
404659,513,32.87
404674,514,32.23
404689,513,32.87
404704,511,32.55
404719,510,31.90
404734,504,32.55
404749,500,31.58
404764,497,32.55
404779,502,32.87
404794,503,31.26
404809,509,32.55
404824,510,32.55
404839,511,32.87
404854,506,32.55
404869,507,32.23
404884,508,32.87
404899,506,31.58
404914,507,32.87
404929,504,32.23
404944,514,32.55
404959,515,33.19
404974,519,32.55
404989,522,32.55
405004,522,32.87
405019,523,31.26
405034,521,32.55
405049,520,32.23
405064,521,31.58
405080,518,31.58
405095,518,32.55
405110,518,33.19
405125,518,32.55
405140,517,32.55
405155,514,32.55
405170,512,31.90
405185,503,31.90
405201,510,32.55
405216,509,32.55
405231,509,32.55
405246,509,32.87
405261,509,32.55
405276,508,32.23
405292,515,32.87
405307,513,33.19
405322,514,32.23
405337,511,32.55
405352,506,32.55
405367,510,31.90
405383,504,31.26
405399,507,32.55
405414,508,32.87
405429,508,32.55
405444,508,32.23
405459,512,32.87
405474,513,32.55
405490,512,32.55
405505,510,30.62
405521,513,32.23
405537,511,32.87
405552,509,32.55
405568,506,32.87
405584,508,32.55
405599,501,32.55
405614,508,32.23
405629,509,32.55
405645,510,32.87
405661,517,32.55
405676,525,32.55
405692,515,32.55
405707,522,32.87
405723,521,31.26
405739,525,31.58
405755,523,32.87
405771,525,32.87
405787,521,32.55
405803,521,32.23
405819,514,30.94
405835,509,32.23
405851,513,32.87
405867,510,32.55
405883,510,32.23
405898,509,32.55
405914,510,32.87
405930,504,31.58
405946,510,32.55
405962,506,31.26
405978,512,31.26
405993,514,32.87
406009,509,31.26
406025,513,30.94
406040,514,32.55
406056,516,32.87
406071,507,32.55
406087,509,30.94
406103,504,31.58
406118,512,32.55
406134,501,32.55
406149,508,32.87
406165,510,30.94
406180,501,31.26
406196,509,32.55
406212,511,31.26
406227,510,32.55
406243,509,32.55
406258,512,32.87
406273,510,32.55
406289,509,32.55
406304,510,32.55
406320,510,32.55
406335,508,32.87
406351,506,32.55
406366,513,32.55
406381,513,32.55
406396,517,32.55
406411,522,31.58
406426,523,31.26
406441,525,32.87
406456,523,32.55
406471,515,32.55
406486,523,32.87
406502,520,31.58
406517,512,31.58
406532,513,32.55
406547,509,32.55
406562,512,32.55
406577,512,32.87
406592,513,32.55
406607,512,32.87
406622,516,30.94
406637,516,31.58
406652,514,31.58
406667,506,32.23
406683,509,32.87
406698,510,32.55
406713,505,31.58
406728,513,32.55
406743,507,32.55
406758,513,32.55
406773,515,32.55
406788,512,32.23
406803,511,32.55
406818,511,32.87
406833,508,32.23
406848,505,31.26
406863,507,32.87
406878,507,32.23
406893,502,32.87
406908,510,32.23
406923,507,31.26
406938,512,33.19
406953,511,32.87
406968,504,31.26
406983,501,32.55
406998,510,32.55
407013,509,31.90
407028,511,32.55
407043,515,31.58
407058,515,32.23
407073,515,32.87
407088,516,30.62
407103,515,32.23
407118,518,30.62
407133,513,32.87
407148,518,32.87
407163,520,32.23
407178,513,30.94
407193,517,32.55
407208,518,32.55
407223,517,32.23
407238,515,32.87
407253,509,30.94
407268,507,30.94
407283,510,32.87
407298,513,32.55
407313,505,30.94
407328,510,32.55
407343,514,32.55
407358,514,33.19
407373,516,32.55
407388,517,32.87
407403,514,32.55
407418,505,32.55
407433,502,30.94
407448,506,30.94
407463,510,32.55
407478,508,32.55
407493,510,32.87
407508,512,32.87
407523,513,32.87
407538,511,32.55
407553,506,31.58
407568,508,32.23
407583,507,32.23
407598,505,32.87
407613,507,32.55
407628,502,32.87
407643,502,31.58
407658,509,32.55
407673,513,31.58
407688,511,31.90
407703,512,32.55
407719,508,32.23
407734,511,32.55
407749,502,32.55
407764,508,32.87
407779,514,32.55
407794,516,32.55
407809,513,32.55
407824,520,31.26
407839,528,32.23
407854,527,32.55
407869,526,32.87
407884,521,32.87
407899,519,32.87
407914,508,32.55
407929,516,32.87
407944,514,32.87
407960,514,32.87
407975,517,32.55
407990,517,32.87
408005,517,31.26
408020,515,32.55
408035,511,32.55
408050,508,32.55
408065,509,32.55
408080,504,31.26
408095,511,32.87
408111,506,31.58
408126,515,32.87
408142,515,32.23
408158,513,32.55
408173,514,32.87
408189,507,32.23
408205,507,30.94
408220,510,32.87
408236,510,31.26
408251,509,32.55
408267,507,32.87
408283,508,31.90
408299,502,30.62
408315,507,32.87
408331,508,32.87
408347,503,31.26
408362,504,32.87
408378,502,30.94
408393,509,32.23
408409,510,31.58
408425,503,32.87
408441,509,32.87
408457,510,31.90
408473,508,31.90
408488,505,31.26
408504,511,32.23
408519,507,32.55
408535,508,32.87
408551,513,32.87
408566,509,32.23
408582,517,32.55
408598,518,32.87
408614,521,32.55
408630,516,32.23
408646,522,32.23
408661,517,30.94
408677,518,32.87
408692,518,32.55
408708,512,30.94
408724,521,32.55
408739,518,31.90
408755,516,33.19
408770,514,31.26
408786,513,32.23
408802,508,32.87
408817,499,31.90
408833,507,30.94
408848,506,31.26
408864,509,32.55
408880,509,32.55
408895,512,32.23
408911,503,31.58
408926,509,31.90
408941,511,32.87
408956,507,32.23
408971,507,31.58
408986,504,31.90
409002,510,31.90
409018,508,32.87
409033,507,32.55
409049,508,32.55
409064,505,32.87
409079,500,32.55
409094,504,30.62
409109,508,32.55
409124,509,32.87
409140,508,30.62
409155,508,31.58
409170,504,32.23
409185,510,33.52
409200,509,32.23
409215,507,32.23
409230,506,32.87
409245,505,31.58
409260,508,31.90
409275,510,32.23
409290,505,30.94
409305,510,32.23
409320,512,32.55
409335,508,32.55
409350,503,31.90
409365,514,32.55
409380,515,32.55
409395,517,32.55
409410,522,32.55
409425,522,33.19
409440,519,30.94
409455,520,31.26
409470,515,31.26
409485,521,31.90
409500,514,31.90
409515,517,32.55
409530,512,31.26
409545,510,32.55
409560,514,32.55
409575,514,31.26
409590,516,31.90
409605,513,32.87
409620,512,33.19
409635,506,31.26
409650,505,31.26
409665,511,32.55
409680,509,30.94
409695,512,32.55
409710,510,32.87
409725,513,31.26
409740,515,32.87
409755,511,31.26
409770,511,31.26
409785,504,32.87
409800,505,31.26
409815,504,32.23
409830,507,32.55
409845,509,32.55
409860,507,32.23
409875,511,32.23
409890,509,32.55
409905,512,32.23
409920,510,32.87
409935,509,32.87
409950,508,32.55
409965,504,32.87
409980,508,32.55
409995,506,31.26
410010,511,32.87
410025,506,32.55
410040,511,32.55
410055,512,32.87
410070,510,31.90
410085,507,32.87
410100,503,31.26
410115,501,32.55
410130,506,32.55
410145,511,32.55
410160,505,31.58
410175,515,32.23
410190,510,32.55
410205,518,31.58
410220,522,31.58
410235,520,32.55
410250,521,33.19
410265,513,32.55
410280,517,32.55
410295,516,32.87
410310,512,30.29
410325,518,32.87
410340,516,32.55
410355,514,32.55
410370,513,32.55
410385,504,32.55
410400,510,32.87
410415,508,32.55
410430,501,32.23
410445,507,30.94
410460,504,31.58
410475,513,32.23
410490,514,32.87
410505,515,32.55
410521,516,32.55
410537,508,31.58
410552,514,32.23
410567,511,31.90
410582,501,32.87
410597,502,32.55
410612,511,32.87
410628,505,30.94
410643,509,33.19
410658,510,32.55
410673,511,33.19
410688,510,32.55
410703,506,30.94
410719,502,30.94
410735,502,32.23
410750,507,32.87
410766,498,31.90
410781,503,32.87
410797,501,31.26
410813,510,32.23
410828,501,32.87
410844,508,32.87
410860,507,33.19
410875,511,32.55
410890,503,31.26
410905,511,32.23
410921,513,32.23
410936,508,31.90
410951,514,32.87
410966,515,32.87
410981,515,31.26
410997,517,32.87
411013,512,30.94
411029,519,33.19
411044,510,31.26
411059,519,32.55
411074,519,32.87
411090,515,32.55
411105,507,32.55
411121,515,31.58
411137,508,32.55
411152,505,32.55
411168,512,31.90
411183,503,32.23
411199,506,31.26
411215,504,31.26
411230,507,33.52
411246,512,32.55
411262,508,32.55
411277,502,32.55
411293,510,32.87
411308,512,32.23
411323,514,32.23
411338,512,32.23
411354,507,30.94
411370,511,32.87
411385,503,31.58
411400,509,32.87
411415,507,32.55
411431,501,32.55
411446,505,32.55
411461,501,31.26
411476,509,32.55
411491,509,32.87
411506,509,31.90
411522,510,32.55
411537,509,33.19
411553,507,32.55
411568,507,32.55
411583,506,32.23
411598,507,32.55
411614,498,31.58
411630,505,33.19
411645,495,31.26
411660,509,32.55
411675,507,30.94
411690,512,32.55
411705,505,32.87
411720,506,31.58
411735,511,30.94
411751,515,32.87
411766,509,30.94
411782,513,30.94
411797,513,32.55
411812,517,32.23
411827,515,30.94
411842,518,32.55
411857,520,32.23
411872,517,32.55
411887,518,32.23
411902,516,32.87
411917,511,31.26
411933,515,33.52
411948,512,32.87
411963,508,32.55
411978,512,31.58
411993,512,32.87
412008,515,31.90
412023,516,32.55
412038,506,32.55
412053,506,30.94
412068,510,32.55
412083,511,33.19
412098,501,32.55
412113,507,32.55
412128,504,30.94
412143,512,32.55
412158,512,32.55
412173,507,30.62
412188,512,32.87
412203,508,32.87
412218,509,32.55
412233,506,32.87
412248,502,30.94
412263,504,31.90
412278,504,32.87
412293,499,31.58
412308,509,32.55
412323,501,32.55
412338,510,32.55
412353,510,32.87
412368,506,32.87
412383,505,32.23
412398,504,31.58
412413,506,31.58
412428,498,31.90
412443,509,32.55
412458,508,32.23
412473,503,30.94
412488,509,32.23
412503,510,31.90
412518,503,32.23
412533,506,32.87
412548,507,32.55
412563,505,31.58
412578,511,31.26
412593,509,31.90
412608,514,32.87
412623,518,32.55
412638,521,32.55
412653,517,30.94
412668,516,31.26
412683,514,32.55
412698,511,30.94
412713,516,31.58
412728,515,32.87
412743,513,32.55
412758,508,31.90
412773,515,31.58
412788,516,32.55
412803,512,32.55
412818,510,32.87
412833,513,32.55
412848,509,32.55
412863,507,30.94
412878,507,31.26
412893,508,31.26
412908,510,31.58
412923,509,30.62
412938,513,32.55
412953,511,32.23
412968,512,30.94
412983,509,32.55
412998,508,32.23
413013,509,32.23
413028,509,32.55
413043,509,32.87
413058,508,32.55
413073,512,32.87
413088,503,31.26
413103,504,31.58
413118,509,32.23
413133,507,32.55
413148,500,31.26
413163,505,31.58
413178,503,31.26
413193,502,31.26
413208,509,32.87
413223,510,32.87
413238,508,32.23
413253,501,32.23
413268,502,32.23
413283,506,32.55
413298,496,32.23
413313,499,31.90
413328,503,32.23
413343,510,32.55
413358,511,32.55
413373,515,31.26
413388,514,32.55
413403,514,32.23
413418,516,31.90
413433,516,32.55
413448,513,32.55
413464,516,32.55
413480,518,32.55
413495,513,31.26
413511,520,32.55
413526,518,32.87
413542,512,32.23
413558,518,32.55
413573,517,32.23
413589,518,32.87
413604,515,32.55
413620,513,32.87
413636,509,32.23
413652,514,32.55
413668,512,32.55
413684,516,31.26
413699,513,32.23
413715,512,32.55
413730,512,32.23
413745,506,32.55
413761,513,32.87
413777,511,32.87
413793,515,32.55
413808,510,30.94
413823,515,32.87
413839,516,32.87
413855,514,32.87
413871,505,31.26
413886,507,32.23
413902,511,31.58
413918,507,31.58
413934,510,31.90
413950,510,32.87
413966,509,32.55
413981,508,32.87
413997,507,31.58
414013,509,31.90
414028,510,32.87
414044,510,30.94
414060,510,32.55
414075,513,32.55
414091,511,32.55
414106,507,30.94
414122,513,32.87
414138,513,32.55
414153,511,32.55
414169,513,32.87
414184,511,32.55
414200,512,32.55
414215,513,32.87
414230,514,32.55
414246,512,30.62
414261,517,32.55
414276,519,32.55
414291,522,32.87
414306,522,32.23
414321,520,32.23
414337,519,31.26
414352,518,32.55
414368,515,32.87
414383,509,31.26
414398,508,30.94
414413,503,31.58
414428,509,32.55
414443,508,31.26
414458,511,32.87
414473,514,32.87
414489,506,32.87
414504,506,32.23
414519,514,32.23
414534,515,32.23
414549,510,32.55
414564,511,32.23
414579,509,32.55
414594,507,31.26
414609,510,31.26
414624,515,32.87
414640,515,32.55
414655,514,32.87
414670,513,32.23
414685,506,32.55
414700,512,32.87
414715,509,32.87
414730,508,31.58
414745,506,32.55
414760,511,31.90
414775,513,30.62
414790,508,32.87
414805,503,31.90
414820,509,32.55
414835,510,32.55
414850,505,30.94
414865,509,32.55
414880,511,32.23
414895,505,31.26
414910,511,32.87
414925,511,31.26
414940,511,32.55
414955,519,33.19
414970,518,32.23
414985,522,30.94
415000,516,30.62
415015,516,32.87
415030,516,32.87
415045,510,30.94
415060,510,30.94
415075,517,32.87
415090,519,32.55
415105,511,32.55
415120,512,31.26
415135,509,32.55
415150,512,32.87
415165,509,32.23
415180,504,31.26
415195,510,32.55
415210,506,31.58
415225,511,32.23
415240,513,32.87
415255,514,32.55
415270,514,32.55
415285,506,31.26
415300,513,32.55
415315,504,31.26
415330,511,32.55
415345,508,32.55
415360,512,32.55
415375,512,32.55
415390,513,32.55
415405,504,32.23
415420,512,32.55
415435,507,32.55
415450,507,32.23
415465,501,31.90
415480,509,32.87
415495,503,32.23
415510,501,32.87
415525,508,32.87
415540,505,31.26
415555,511,32.23
415570,510,33.19
415585,509,33.19
415600,507,31.90
415615,501,32.23
415630,507,32.87
415645,509,32.87
415660,513,32.55
415675,518,33.19
415690,518,32.55
415705,524,32.87
415720,517,33.19
415735,517,31.58
415750,521,32.55
415765,521,32.87
415780,519,32.55
415795,517,32.55
415810,514,31.26
415825,511,32.55
415840,518,32.55
415855,513,30.62
415870,516,31.26
415885,509,32.55
415900,513,31.90
415915,505,32.55
415930,503,31.90
415945,514,32.87
415960,510,33.19
415975,515,32.55
415990,515,32.87
416005,517,30.94
416020,517,32.55
416035,510,32.23
416050,506,32.55
416065,511,31.26
416080,511,32.87
416095,510,32.55
416110,510,32.55
416125,511,32.23
416140,512,32.87
416155,513,32.87
416170,511,32.87
416185,509,32.55
416200,501,31.26
416215,508,32.87
416230,507,32.87
416245,502,31.26
416260,509,32.55
416275,509,32.55
416290,510,31.26
416305,512,31.26
416320,506,31.58
416335,509,32.23
416350,501,32.23
416365,508,33.19
416380,503,30.94
416395,505,31.26
416410,511,32.55
416425,512,32.55
416440,509,31.26
416455,516,32.87
416470,510,31.58
416485,512,32.23
416500,512,31.26
416515,512,31.90
416530,520,32.23
416545,514,31.26
416560,519,31.90
416575,518,31.26
416590,518,32.23
416605,519,32.87
416620,520,32.87
416635,518,32.87
416650,506,30.94
416665,508,32.87
416680,512,31.58
416695,511,32.55
416710,509,32.87
416725,512,31.26
416740,507,32.23
416755,517,33.19
416770,509,32.23
416785,516,31.26
416800,514,32.55
416815,511,32.87
416830,507,31.58
416845,503,31.58
416860,512,32.55
416875,512,32.87
416890,513,32.87
416905,515,32.55
416920,512,32.55
416935,514,31.26
416950,510,32.87
416965,508,32.87
416980,506,32.55
416995,502,32.55
417010,506,31.26
417025,501,32.55
417040,507,30.62
417055,512,31.58
417070,511,32.87
417085,504,32.55
417100,512,32.55
417115,509,30.62
417130,508,32.87
417145,509,32.55
417160,508,32.23
417175,510,32.55
417190,508,30.94
417205,513,32.55
417220,513,32.87
417235,512,32.87
417250,505,31.26
417265,513,31.90
417280,506,31.58
417295,509,31.58
417310,521,33.19
417325,517,32.23
417340,521,31.58
417355,526,32.87
417370,525,32.55
417385,520,31.90
417400,514,30.62
417415,518,32.87
417430,514,32.55
417445,512,31.26
417460,516,32.87
417475,516,32.55
417490,512,30.62
417505,513,32.23
417520,513,32.55
417535,509,32.55
417550,507,32.87
417565,510,31.26
417580,512,32.87
417595,513,32.55
417610,509,30.94
417625,512,31.58
417640,511,31.26
417655,514,32.55
417670,513,32.23
417685,511,32.87
417700,514,32.55
417715,513,32.23
417730,511,32.87
417745,511,31.58
417760,505,32.87
417775,514,32.55
417790,512,32.87
417805,503,31.26
417820,511,32.55
417835,513,33.19
417850,509,32.23
417865,510,32.87
417880,503,31.58
417895,502,31.26
417910,505,31.58
417925,503,32.87
417940,513,32.23
417955,507,32.87
417970,510,32.55
417985,506,31.26
418000,508,33.19
418015,501,31.26
418030,503,31.90
418045,510,32.87
418060,509,32.55
418075,514,32.55
418090,517,31.26
418105,515,32.55
418120,518,32.55
418135,520,32.87
418150,509,31.58
418165,520,32.55
418180,520,32.55
418195,515,32.87
418210,517,32.55
418225,520,32.55
418240,521,32.23
418255,517,31.58
418270,516,32.55
418285,518,32.87
418300,512,32.55
418315,510,32.55
418330,512,32.87
418345,505,32.55
418360,512,32.87
418375,515,33.19
418390,516,31.58
418405,514,32.87
418420,510,31.26
418435,515,32.23
418450,509,32.23
418465,511,31.26
418480,509,32.55
418495,508,30.62
418510,510,32.55
418525,506,31.58
418540,514,32.87
418555,513,32.55
418570,507,32.23
418585,508,32.23
418600,513,31.58
418615,510,32.55
418630,506,32.87
418645,502,32.55
418660,508,31.26
418675,509,32.87
418690,509,32.55
418705,506,32.87
418720,508,33.19
418735,509,32.87
418750,509,32.55
418765,510,32.23
418780,509,32.55
418795,509,32.55
418810,500,31.90
418825,505,31.26
418840,507,32.87
418855,511,32.55
418870,513,32.55
418885,511,31.26
418900,515,32.87
418915,507,32.23
418930,509,32.55
418945,516,33.19
418960,511,30.94
418975,519,32.87
418990,520,33.19
419005,517,32.55
419020,514,31.26
419035,516,32.87
419050,513,33.52
419065,511,32.55
419080,509,32.55
419095,510,32.87
419110,510,32.55
419125,505,31.58
419140,514,32.23
419155,511,32.23
419170,511,31.90
419185,513,32.87
419200,511,31.58
419215,509,32.55
419230,510,31.90
419245,506,32.23
419260,509,32.23
419275,513,32.87
419290,512,32.23
419305,512,32.23
419320,512,32.87
419335,504,31.26
419350,506,31.58
419365,506,31.26
419380,506,32.55
419395,507,32.55
419410,507,32.55
419425,505,30.94
419440,502,31.26
419455,510,31.90
419470,509,32.55
419485,510,32.87
419500,508,32.87
419515,505,32.55
419530,507,32.23
419545,500,32.55
419560,502,32.23
419575,509,32.55
419590,507,31.58
419605,505,31.26
419620,508,32.55
419635,513,30.94
419650,510,32.87
419665,512,32.55
419680,513,33.19
419695,511,32.55
419710,516,32.87
419725,513,32.55
419740,519,31.26
419755,516,32.55
419770,522,32.55
419785,520,32.55
419800,515,32.87
419815,514,30.94
419830,514,32.87
419845,512,32.87
419860,512,32.23
419875,515,30.94
419890,511,31.26
419905,507,32.23
419920,509,32.23
419935,505,32.87
419950,512,31.90
419965,509,32.55
419980,513,33.19
419995,511,32.55
420010,513,30.94
420025,509,32.55
420040,513,32.55
420055,512,32.55
420070,513,31.58
420085,507,30.94
420100,512,32.23
420115,509,32.87
420130,509,32.87
420145,509,30.94
420160,510,32.87
420175,510,31.58
420190,512,32.55
420205,508,32.87
420220,510,32.87
420235,502,31.58
420250,508,32.87
420265,508,32.55
420280,500,31.26
420295,499,31.90
420310,507,32.87
420325,509,32.55
420340,509,31.58
420355,511,32.55
420370,512,31.26
420385,508,31.26
420400,507,33.19
420415,506,31.26
420430,508,32.55
420445,508,32.87
420460,511,31.26
420475,513,32.55
420490,509,31.58
420505,517,32.87
420520,514,32.87
420535,512,32.55
420550,520,32.87
420565,517,30.94
420580,518,32.55
420595,518,32.55
420610,514,32.87
420625,517,32.23
420640,518,32.55
420655,522,33.19
420670,512,31.90
420685,516,32.87
420700,513,32.55
420715,511,32.87
420730,506,32.23
420745,511,32.87
420760,512,32.55
420775,511,31.26
420790,514,31.58
420805,514,31.26
420820,516,32.23
420835,513,31.26
420850,513,32.87
420865,510,32.23
420880,512,32.23
420895,512,31.58
420910,505,32.23
420925,504,32.87
420940,512,32.55
420955,514,32.55
420970,513,32.87
420985,511,32.55
421000,506,32.55
421015,508,32.23
421030,507,32.87
421045,507,31.58
421060,509,32.87
421075,512,32.23
421090,511,32.87
421105,513,32.55
421120,512,32.87
421135,510,32.23
421150,508,32.55
421165,508,32.55
421180,507,32.23
421195,506,30.62
421210,511,30.62
421225,512,32.55
421240,507,33.19
421255,515,32.87
421270,513,32.55
421285,509,32.23
421300,513,32.55
421315,512,31.26
421330,517,32.87
421345,511,32.55
421360,518,32.87
421375,514,32.55
421390,523,32.55
421405,518,32.55
421420,518,30.94
421435,517,30.94
421450,518,32.23
421465,517,31.58
421480,514,32.55
421495,506,32.87
421510,513,32.87
421525,515,32.87
421540,511,31.26
421555,517,32.55
421570,510,31.26
421585,513,32.87
421600,505,31.90
421615,510,32.55
421630,512,31.26
421645,508,31.58
421660,517,32.87
421675,510,31.26
421690,510,31.90
421705,515,32.55
421720,507,31.58
421735,509,31.26
421750,514,32.55
421765,512,33.19
421780,503,31.58
421795,502,31.26
421810,511,32.87
421825,510,32.55
421840,503,30.94
421855,514,32.87
421870,514,32.87
421885,503,32.23
421900,509,32.87
421915,510,31.58
421930,503,31.26
421945,510,32.87
421960,511,33.19
421975,511,31.26
421990,512,33.19
422005,516,32.87
422020,509,31.26
422035,503,31.26
422050,507,31.58
422065,512,32.55
422080,512,32.55
422095,513,32.55
422110,517,32.87
422125,520,32.23
422140,521,32.23
422155,522,32.55
422170,524,31.58
422185,515,31.58
422200,513,31.26
422215,516,32.55
422230,512,30.94
422245,516,32.87
422260,509,32.23
422275,509,31.58
422290,517,32.87
422305,513,32.87
422320,510,32.55
422335,512,30.94
422350,513,30.94
422365,511,32.55
422380,511,32.23
422395,513,31.90
422410,506,32.23
422425,512,32.55
422440,509,31.26
422455,510,31.26
422470,515,32.55
422485,509,31.58
422500,514,32.87
422515,510,32.23
422530,510,32.87
422545,508,31.90
422560,511,32.87
422575,507,30.62
422590,511,30.62
422605,513,32.87
422620,503,32.55
422635,510,31.26
422650,506,32.55
422665,506,32.55
422680,500,32.55
422695,509,32.55
422710,508,31.58
422725,511,32.87
422740,511,31.90
422755,506,32.87
422770,509,31.26
422785,515,32.55
422800,514,32.87
422815,514,32.55
422830,517,32.55
422845,518,32.55
422860,522,31.26
422875,520,32.23
422890,524,32.23
422905,526,32.87
422920,525,33.19
422935,515,32.87
422950,517,32.55
422965,517,31.90
422980,508,31.26
422995,508,30.62
423010,512,32.23
423025,516,32.87
423040,516,32.23
423055,515,32.87
423070,511,31.26
423085,516,31.26
423100,507,32.55
423115,510,31.90
423130,514,32.87
423145,514,32.87
423160,508,32.23
423175,515,32.87
423190,511,32.55
423205,520,31.26
423220,516,32.87
423235,514,32.23
423250,511,32.55
423265,512,32.87
423280,509,31.26
423295,509,32.23
423310,503,32.87
423325,512,31.58
423340,512,32.23
423355,515,32.87
423370,506,31.26
423385,513,32.55
423400,510,32.23
423415,501,32.87
423430,508,31.90
423445,508,32.55
423460,508,32.55
423475,514,31.58
423490,511,32.55
423505,510,31.58
423520,509,32.55
423535,508,32.23
423550,516,32.87
423565,520,31.26
423580,514,32.87
423595,524,32.87
423610,523,32.23
423625,526,32.55
423640,527,31.90
423655,524,32.55
423670,523,32.87
423685,519,32.55
423700,512,31.58
423715,515,32.55
423730,515,32.87
423745,511,32.55
423760,516,32.87
423775,509,31.58
423790,517,30.94
423805,516,31.58
423820,516,32.23
423835,517,32.87
423850,517,32.55
423865,513,32.87
423880,508,30.94
423895,509,32.87
423910,515,31.90
423925,515,32.55
423940,507,31.58
423955,512,31.26
423970,509,32.87
423985,512,31.90
424000,507,32.87
424015,511,32.55
424030,508,32.55
424045,507,32.87
424060,506,32.87
424075,504,32.55
424090,512,32.23
424105,502,31.58
424120,512,32.23
424135,508,32.55
424150,510,32.55
424165,505,32.55
424180,508,32.87
424195,504,30.62
424210,504,32.55
424225,510,32.87
424240,511,32.55
424255,506,32.23
424270,512,32.55
424285,511,31.26
424300,516,32.23
424315,517,33.52
424330,519,32.23
424345,517,31.26
424360,525,32.55
424375,525,32.23
424390,528,31.26
424405,522,30.94
424420,524,32.87
424435,515,31.26
424450,518,32.55
424465,516,32.87
424480,510,32.55
424495,505,32.55
424511,510,32.55
424526,506,32.23
424542,513,32.55
424557,513,32.55
424572,518,32.87
424587,516,32.55
424602,513,32.87
424617,511,32.23
424632,506,32.87
424647,501,31.26
424663,511,32.87
424679,509,32.55
424694,511,32.87
424710,504,32.55
424725,512,32.55
424740,508,31.26
424755,511,32.87
424770,512,31.26
424785,509,33.19
424800,504,31.26
424815,500,32.23
424830,507,32.55
424845,506,32.55
424861,507,32.55
424876,509,32.55
424891,511,32.55
424906,506,32.87
424921,514,30.94
424936,512,32.87
424951,512,32.55
424967,504,32.55
424983,509,31.58
424999,507,32.87
425014,509,32.87
425030,510,31.58
425046,503,32.87
425061,510,32.87
425077,510,33.19
425092,503,32.55
425108,516,32.55
425124,516,32.87
425140,516,31.90
425156,523,31.58
425172,523,32.87
425187,528,32.23
425202,528,32.87
425217,521,32.23
425233,523,32.23
425249,518,32.23
425265,518,31.58
425281,512,30.94
425297,514,31.90
425312,511,31.90
425328,512,31.58
425343,512,32.87
425359,513,32.23
425375,510,32.55
425390,515,31.26
425406,513,32.55
425421,507,32.87
425437,512,31.26
425453,514,32.55
425468,509,32.55
425484,514,32.87
425499,515,32.55
425515,506,31.58
425531,513,33.19
425546,509,32.23
425562,509,32.87
425577,503,31.90
425592,512,31.58
425607,512,32.55
425622,508,32.55
425637,506,32.23
425652,503,31.90
425667,503,32.87
425683,510,32.87
425698,508,32.87
425713,507,32.23
425728,508,32.55
425743,506,32.55
425758,504,31.90
425773,511,32.55
425788,510,32.87
425803,506,31.90
425818,504,31.58
425833,510,32.55
425848,510,32.55
425864,507,31.58
425879,505,31.26
425894,512,32.87
425909,517,31.58
425924,519,32.55
425939,516,32.87
425954,525,30.94
425969,516,32.55
425984,524,32.55
425999,517,32.87
426014,520,32.55
426029,517,32.55
426044,518,32.55
426059,515,33.19
426074,516,32.87
426089,516,32.87
426104,515,32.55
426119,514,32.87
426134,507,32.23
426149,508,32.55
426164,501,31.58
426179,509,32.55
426194,512,32.55
426209,511,32.55
426224,513,32.55
426239,512,32.55
426254,518,31.58
426269,510,32.23
426284,512,32.55
426299,506,30.94
426314,505,32.55
426329,509,32.55
426344,507,31.26
426359,505,32.23
426374,505,32.23
426389,511,32.55
426404,513,33.19
426419,511,31.90
426434,507,32.55
426449,506,32.55
426464,507,31.90
426479,507,31.90
426494,504,31.26
426509,501,31.90
426524,506,31.58
426539,512,32.23
426554,510,32.23
426569,504,32.23
426584,511,32.87
426599,504,31.26
426614,511,32.87
426629,510,31.26
426644,515,32.55
426659,521,32.55
426674,522,32.87
426689,517,32.23
426704,526,31.58
426719,520,30.94
426734,524,32.87
426749,521,32.55
426764,517,32.55
426779,515,32.87
426794,515,32.23
426809,514,32.87
426824,516,32.23
426839,516,32.55
426854,513,32.23
426869,511,32.23
426884,511,32.87
426899,512,32.23
426914,510,31.58
426929,512,31.90
426944,508,30.94
426959,512,31.26
426974,515,32.87
426989,507,31.26
427004,515,32.23
427020,514,32.87
427035,510,32.87
427050,508,32.23
427065,502,32.87
427080,501,31.26
427095,500,30.94
427110,509,32.87
427125,508,33.19
427141,510,32.55
427156,509,32.23
427171,509,32.87
427186,509,32.87
427201,508,32.87
427216,508,32.87
427231,503,30.62
427246,508,32.55
427262,500,31.90
427278,503,31.90
427293,513,30.62
427309,511,32.23
427324,505,32.87
427340,506,31.58
427356,510,32.23
427371,507,29.97
427387,513,30.94
427403,516,32.23
427418,516,32.87
427434,522,31.26
427449,522,32.55
427465,523,32.55
427481,519,32.55
427496,522,33.19
427512,519,32.55
427527,522,32.55
427543,517,32.87
427559,514,32.55
427574,512,31.58
427590,519,32.87
427605,517,32.23
427621,516,30.94
427637,515,32.55
427653,516,32.23
427669,515,32.55
427685,515,31.58
427701,513,32.87
427717,506,32.55
427733,510,31.26
427749,504,31.26
427765,508,30.94
427781,509,32.87
427797,506,32.23
427812,510,32.55
427828,512,31.90
427843,511,32.87
427859,509,32.55
427875,502,32.23
427890,509,31.26
427906,511,32.87
427921,510,32.23
427937,504,32.55
427953,503,32.23
427968,508,32.55
427984,507,32.55
427999,507,32.55
428015,501,30.62
428031,504,32.87
428046,507,32.55
428062,502,30.94
428077,506,32.87
428092,509,32.87
428107,512,32.55
428122,510,32.55
428138,510,32.23
428153,509,32.23
428168,510,31.90
428183,509,32.55
428198,508,32.55
428213,516,32.87
428228,517,32.87
428243,522,31.90
428258,523,32.87
428273,522,32.23
428288,526,30.94
428303,526,32.87
428318,522,32.55
428333,519,31.26
428348,521,32.87
428364,512,30.94
428379,513,31.26
428394,518,32.55
428409,513,32.87
428424,516,32.87
428439,514,32.55
428454,515,32.55
428469,516,32.87
428484,513,32.55
428499,507,30.94
428514,510,32.55
428529,513,32.23
428544,512,32.87
428559,506,32.55
428574,516,32.23
428589,517,32.55
428604,515,32.87
428619,509,31.26
428634,512,33.19
428649,507,31.26
428664,506,32.23
428679,508,31.58
428694,503,31.58
428709,503,31.26
428724,509,32.55
428739,506,31.90
428754,507,32.87
428769,515,31.90
428784,500,32.55
428799,504,32.87
428814,504,32.55
428829,508,32.55
428844,502,32.87
428859,512,32.23
428874,504,31.26
428889,510,31.26
428904,513,31.90
428919,508,32.55
428934,501,32.87
428949,502,32.55
428964,503,30.94
428979,507,31.26
428994,510,33.19
429009,511,32.55
429024,514,31.58
429039,508,32.55
429054,517,32.55
429069,517,32.23
429084,516,32.55
429099,514,32.23
429114,520,32.55
429129,518,31.58
429144,523,33.19
429159,519,31.26
429174,522,32.87
429189,525,31.58
429204,519,32.55
429219,514,31.26
429234,509,32.55
429249,512,32.55
429264,513,32.87
429279,507,30.94
429294,509,32.87
429309,513,32.55
429324,506,31.90
429339,512,30.62
429354,507,32.55
429369,512,32.55
429384,509,31.26
429399,513,32.87
429414,512,32.55
429429,512,32.55
429444,513,32.87
429459,513,31.26
429474,512,32.55
429489,514,31.26
429504,504,32.23
429519,511,32.87
429534,506,32.55
429549,501,32.55
429564,510,33.52
429580,506,32.55
429595,506,32.55
429610,509,32.55
429625,510,31.58
429640,511,32.55
429655,513,32.55
429671,507,30.94
429686,512,32.55
429701,505,31.26
429716,508,32.23
429732,505,32.87
429748,506,32.87
429763,508,30.94
429779,503,30.94
429794,505,32.55
429810,509,31.26
429825,504,31.90
429840,503,31.58
429856,512,30.94
429872,516,32.87
429887,514,32.55
429903,515,32.23
429918,522,32.87
429934,517,31.90
429949,522,31.26
429965,521,32.87
429981,516,32.87
429996,512,30.94
430012,515,31.58
430028,511,32.55
430043,505,31.26
430059,512,31.26
430074,510,32.55
430090,514,32.87
430105,514,32.23
430121,506,31.90
430137,513,32.55
430153,510,32.87
430169,514,32.55
430185,516,32.87
430200,512,32.23
430216,507,31.90
430232,512,32.23
430247,514,32.55
430263,508,31.26
430278,511,31.58
430294,509,32.23
430310,502,32.55
430326,502,31.90
430342,507,32.87
430358,509,32.55
430374,507,32.23
430390,510,31.90
430406,510,30.94
430422,509,32.55
430437,508,32.87
430453,505,31.26
430469,510,32.55
430484,501,31.58
430499,505,31.90
430515,507,32.87
430531,499,32.55
430547,505,31.26
430562,501,31.26
430577,506,32.23
430592,510,32.87
430607,504,32.55
430622,506,32.87
430638,508,31.26
430653,510,31.90
430668,518,32.55
430683,515,32.55
430698,512,31.90
430713,520,32.55
430728,521,32.55
430743,516,32.23
430759,523,31.58
430774,518,32.55
430790,520,32.55
430805,519,33.19
430821,519,31.90
430837,515,32.23
430852,509,32.23
430868,513,32.55
430883,510,32.23
430898,505,32.55
430913,508,32.55
430928,510,32.87
430943,512,30.94
430958,512,32.55
430973,512,31.26
430988,507,32.87
431003,507,32.55
431019,514,32.87
431034,511,30.94
431049,512,30.94
431064,510,32.55
431079,506,32.23
431094,512,32.55
431109,509,32.87
431124,505,31.58
431140,510,33.19
431155,507,32.87
431170,507,32.23
431185,505,31.58
431200,505,32.55
431215,504,32.87
431230,506,32.23
431245,506,32.23
431260,507,33.19
431275,512,31.58
431290,510,32.55
431305,508,32.23
431320,511,32.87
431335,507,32.55
431350,507,31.90
431365,506,33.19
431380,502,30.94
431395,509,32.55
431410,503,32.23
431425,511,32.87
431440,510,31.58
431455,519,31.90
431470,522,30.94
431485,518,31.58
431500,522,31.90
431515,518,30.94
431530,522,32.87
431545,523,32.23
431560,521,32.55
431575,519,31.58
431590,522,32.87
431605,514,31.58
431620,516,32.87
431635,513,32.87
431650,512,32.55
431665,501,32.55
431680,510,32.55
431695,502,32.87
431710,511,32.55
431725,510,31.26
431740,515,31.26
431755,514,32.23
431770,514,31.58
431785,516,32.55
431800,507,31.26
431815,508,31.90
431830,509,32.55
431845,513,32.23
431860,512,31.58
431875,511,32.87
431890,514,32.87
431905,508,31.90
431920,510,31.58
431935,510,32.87
431950,509,32.55
431965,506,32.23
431980,507,32.23
431995,500,31.58
432010,505,32.87
432025,503,30.62
432040,506,32.55
432055,511,32.87
432070,510,32.87
432085,509,32.87
432100,506,32.55
432115,508,32.55
432130,506,30.94
432145,501,32.55
432160,510,32.87
432175,510,31.90
432190,513,31.90
432205,503,32.55
432220,508,32.55
432235,513,31.58
432250,507,32.23
432265,509,32.23
432280,517,32.55
432295,521,32.55
432310,516,32.87
432325,522,31.26
432340,526,31.26
432355,523,32.87
432370,523,32.55
432385,520,32.55
432400,515,32.87
432415,508,30.94
432430,514,32.55
432445,509,31.26
432460,513,32.87
432475,512,31.26
432490,514,30.94
432505,509,32.87
432520,513,32.55
432535,513,32.55
432550,513,32.55
432565,507,31.58
432580,511,32.87
432595,511,32.87
432610,514,32.87
432625,516,32.55
432640,516,32.55
432655,516,32.23
432670,510,31.26
432685,509,31.58
432700,510,32.87
432715,509,32.55
432730,511,32.87
432745,508,32.55
432760,507,32.55
432775,509,32.55
432790,510,31.90
432805,512,30.62
432820,509,32.55
432835,507,32.87
432850,503,31.26
432865,507,32.55
432880,506,32.55
432895,510,32.87
432910,509,32.87
432925,512,32.55
432940,508,30.62
432955,514,32.55
432970,510,33.19
432985,514,31.58
433000,513,32.55
433015,512,32.23
433030,513,32.23
433045,518,32.55
433060,518,32.23
433075,517,31.26
433090,527,32.87
433105,526,32.23
433120,526,32.55
433135,518,31.58
433150,520,33.19
433165,517,32.55
433180,509,31.90
433195,509,30.62
433210,514,32.23
433225,517,32.55
433240,512,32.87
433255,516,32.87
433270,513,30.94
433285,506,31.58
433300,512,32.87
433315,505,32.55
433330,512,32.55
433345,512,32.87
433360,515,31.90
433375,516,32.23
433390,516,32.23
433405,509,32.55
433420,506,31.26
433435,511,30.94
433450,509,32.87
433465,509,32.55
433480,508,32.87
433495,506,30.94
433510,510,32.55
433525,507,32.87
433540,511,32.55
433555,509,32.55
433570,504,32.55
433585,509,32.87
433600,507,33.52
433615,508,32.87
433630,507,31.58
433645,509,32.87
433660,507,32.55
433675,512,32.23
433690,511,32.55
433705,513,32.55
433720,508,32.55
433735,511,32.87
433750,511,32.87
433765,509,32.87
433780,513,32.23
433795,512,32.55
433810,518,32.23
433825,525,32.55
433840,527,31.58
433855,526,32.55
433870,522,31.26
433885,522,32.87
433900,520,32.87
433915,516,32.55
433930,512,31.26
433945,508,32.55
433960,511,32.55
433975,514,32.87
433990,512,33.52
434005,513,32.55
434020,504,32.87
434035,509,32.87
434050,512,32.87
434065,512,31.90
434080,506,32.55
434095,514,32.23
434110,515,32.87
434125,512,31.26
434140,517,32.55
434155,513,31.58
434170,512,32.87
434185,508,32.55
434200,509,32.55
434215,509,32.55
434230,503,31.26
434245,504,30.62
434260,510,32.55
434275,503,31.58
434290,508,33.19
434305,507,30.94
434320,504,31.58
434335,503,31.26
434350,506,32.87
434365,504,31.26
434380,507,32.55
434395,508,32.87
434410,508,32.23
434425,506,30.94
434440,509,32.55
434455,511,32.87
434470,509,31.90
434485,510,32.55
434500,505,31.26
434515,509,30.62
434530,515,31.58
434545,517,32.23
434560,516,32.87
434575,525,33.19
434590,529,31.26
434605,526,30.94
434620,528,33.19
434635,526,33.19
434650,514,32.87
434665,518,32.55
434680,512,31.90
434695,517,32.87
434710,511,32.55
434725,518,31.90
434740,520,32.55
434755,510,32.23
434770,514,32.23
434785,507,32.55
434800,512,31.26
434815,511,32.23
434830,513,32.55
434845,514,32.55
434860,516,32.55
434875,516,32.87
434890,511,31.58
434905,514,32.87
434920,516,32.55
434935,505,32.87
434950,508,31.26
434965,503,32.23
434980,507,33.52
434995,501,32.55
435010,509,32.87
435025,504,32.87
435040,503,32.55
435055,512,32.55
435070,509,32.87
435085,509,32.87
435100,508,32.87
435115,501,31.90
435130,501,31.90
435145,506,32.87
435160,509,32.55
435175,505,32.87
435190,506,31.26
435205,505,31.58
435220,510,31.90
435235,510,32.87
435250,509,33.19
435265,514,32.55
435280,510,32.55
435295,521,32.55
435310,521,31.26
435325,524,32.55
435340,522,32.55
435355,529,32.87
435370,523,30.94
435385,523,32.55
435400,524,30.94
435415,512,32.23
435430,517,32.55
435445,516,32.23
435460,518,32.87
435475,514,32.23
435490,513,30.62
435505,508,32.55
435520,514,32.87
435535,507,32.55
435550,511,32.23
435565,512,32.55
435580,510,31.26
435595,511,32.55
435610,507,31.90
435625,515,32.87
435640,514,30.94
435655,516,31.58
435670,512,30.94
435685,510,32.87
435700,508,32.87
435715,506,32.23
435731,507,32.55
435746,507,32.55
435761,509,32.55
435776,503,32.55
435791,502,32.87
435806,509,32.55
435822,510,32.55
435837,505,31.26
435852,509,32.23
435867,498,32.55
435882,505,32.55
435897,508,31.90
435912,508,32.55
435927,509,32.23
435943,512,32.55
435959,512,32.55
435974,512,31.58
435989,511,32.87
436004,512,32.55
436020,513,32.87
436035,510,31.90
436051,521,32.23
436067,514,31.58
436082,523,31.26
436098,523,31.26
436113,525,32.23
436129,529,32.87
436145,523,32.87
436160,518,32.23
436175,523,32.55
436191,516,31.58
436207,518,32.55
436223,520,31.90
436238,517,33.19
436253,512,32.55
436269,511,32.55
436284,502,31.58
436300,507,33.84
436316,508,30.94
436331,510,31.26
436346,509,32.87
436362,513,33.19
436378,512,32.87
436393,517,33.19
436409,515,32.87
436425,514,32.23
436441,512,32.87
436457,513,32.87
436473,507,32.87
436489,507,32.55
436505,510,32.55
436521,508,32.55
436537,510,32.55
436552,509,31.26
436568,501,31.26
436583,505,32.87
436598,505,32.55
436614,506,32.23
436630,506,32.87
436646,505,32.87
436661,506,32.55
436676,510,32.23
436691,510,32.55
436707,509,32.55
436722,512,31.26
436738,512,32.55
436754,512,32.55
436769,512,32.87
436784,512,31.90
436799,516,32.55
436815,517,33.52
436830,522,32.87
436846,518,32.55
436861,525,32.87
436877,523,31.26
436893,527,32.55
436908,526,32.87
436924,525,33.19
436939,516,31.26
436954,516,31.58
436969,517,32.55
436984,503,31.58
436999,508,32.55
437015,502,31.26
437031,507,32.23
437046,503,31.26
437062,509,32.87
437077,505,32.55
437092,515,31.90
437107,511,31.58
437122,516,31.90
437137,510,32.23
437152,519,32.87
437167,512,32.23
437183,503,31.26
437198,507,32.87
437213,509,32.23
437228,508,31.58
437243,510,32.55
437258,510,32.55
437273,509,32.87
437288,509,32.87
437303,502,32.23
437318,508,32.87
437333,499,32.55
437348,498,31.58
437363,505,32.87
437378,505,31.26
437393,509,32.55
437408,511,32.87
437423,507,30.94
437438,503,32.87
437453,510,32.55
437468,504,31.26
437483,511,32.55
437498,507,32.87
437513,517,32.55
437528,522,32.55
437543,520,30.94
437558,528,32.55
437573,522,32.55
437588,526,31.58
437603,524,33.52
437618,521,32.87
437633,521,32.87
437648,517,32.87
437663,505,31.58
437678,512,32.87
437693,504,32.87
437708,511,32.23
437723,510,32.87
437738,501,31.58
437753,504,31.26
437768,509,32.23
437783,512,33.19
437798,505,32.87
437813,506,31.26
437828,513,32.23
437843,513,31.58
437858,516,32.55
437873,516,31.58
437888,512,32.55
437903,506,31.58
437918,503,31.90
437933,507,32.55
437948,506,32.23
437963,502,31.26
437978,507,32.55
437993,506,32.87
438008,508,32.55
438023,506,32.55
438038,508,32.87
438053,501,30.94
438068,506,32.55
438083,504,32.23
438098,498,31.26
438113,508,31.58
438128,507,32.55
438143,506,32.55
438158,509,32.87
438173,513,31.90
438188,513,32.87
438203,513,31.26
438218,511,32.87
438233,513,31.26
438248,521,32.87
438263,524,32.55
438279,527,31.58
438294,528,32.55
438309,527,32.55
438324,517,32.55
438339,526,32.55
438354,524,32.55
438370,519,32.87
438385,516,31.90
438400,512,33.52
438416,509,32.55
438431,512,32.87
438446,510,32.23
438461,512,31.26
438476,514,32.55
438491,513,33.19
438507,509,31.58
438522,507,32.23
438537,510,31.26
438552,515,32.55
438567,515,32.55
438582,512,32.87
438597,511,32.87
438612,513,32.87
438628,508,31.58
438643,509,32.87
438658,502,31.26
438673,510,32.55
438688,509,31.26
438703,504,32.87
438719,508,32.55
438735,499,31.58
438750,506,31.90
438766,503,32.87
438781,503,32.87
438797,501,32.55
438813,503,32.87
438828,506,32.87
438844,503,32.23
438860,502,31.26
438875,508,33.19
438891,508,32.55
438907,509,32.55
438923,506,31.26
438938,513,33.19
438953,516,32.55
438969,518,32.55
438985,518,31.58
439000,525,31.90
439016,524,32.23
439031,522,32.55
439047,521,32.55
439063,514,31.90
439079,518,31.26
439095,519,32.87
439110,512,32.87
439126,513,32.23
439142,508,31.90
439157,515,32.23
439173,512,32.87
439189,513,32.55
439204,508,31.26
439220,512,32.87
439235,510,32.55
439251,509,32.55
439267,512,32.55
439282,505,32.23
439298,510,32.87
439313,509,31.90
439329,512,32.55
439345,512,32.87
439360,512,32.55
439376,504,30.94
439392,512,32.55
439407,512,32.55
439423,510,32.55
439438,509,32.55
439454,506,32.23
439470,503,31.26
439485,506,32.87
439501,502,31.58
439516,505,32.55
439532,498,31.58
439548,505,32.87
439563,497,32.55
439579,506,32.87
439594,507,32.23
439609,509,32.55
439624,511,32.55
439640,507,31.26
439655,504,32.23
439670,509,32.55
439685,501,31.26
439700,510,32.23
439715,513,32.87
439730,509,31.58
439745,520,32.55
439760,524,31.26
439775,520,30.62
439790,523,31.90
439805,528,32.87
439821,527,31.90
439836,522,32.55
439851,515,32.55
439866,517,32.87
439881,513,32.55
439896,512,31.90
439911,512,32.55
439926,511,33.19
439941,509,32.23
439956,506,32.23
439971,511,32.55
439986,514,32.55
440001,509,32.87
440016,510,32.55
440031,511,33.19
440046,506,32.23
440061,507,31.58
440076,515,32.87
440091,517,32.55
440106,513,32.87
440121,509,30.94
440136,506,31.26
440151,502,31.26
440166,507,32.55
440181,502,30.94
440196,500,32.87
440211,504,32.23
440226,509,32.55
440241,507,31.90
440256,508,32.87
440271,506,31.26
440286,510,32.23
440301,500,32.23
440316,501,32.87
440331,507,32.87
440346,503,31.58
440361,506,32.55
440376,512,31.58
440391,510,32.87
440406,503,32.87
440421,511,32.87
440436,510,32.55
440451,509,32.87
440466,508,32.55
440481,509,32.87
440496,514,31.58
440511,516,32.87
440526,520,32.55
440541,519,30.94
440556,520,31.58
440571,526,32.55
440586,526,32.87
440601,521,32.55
440616,522,32.55
440631,517,32.55
440646,515,32.55
440661,515,31.26
440676,513,32.55
440692,512,31.58
440707,516,33.52
440722,514,31.90
440737,511,32.55
440752,510,32.23
440767,508,32.87
440782,508,32.23
440797,510,31.90
440812,514,31.26
440827,507,31.58
440843,506,31.58
440858,514,32.55
440873,517,33.19
440888,512,31.58
440903,505,31.26
440918,511,33.19
440933,507,32.55
440948,504,31.58
440963,509,31.26
440978,507,32.23
440993,501,32.23
441008,502,31.90
441023,509,32.55
441038,508,32.87
441054,502,31.26
441069,506,33.19
441084,500,32.55
441099,505,32.23
441114,503,32.87
441129,510,32.55
441144,512,32.87
441159,510,32.87
441175,503,31.58
441190,511,32.87
441205,511,31.58
441220,507,32.55
441235,511,31.26
441250,517,32.87
441266,521,31.58
441281,519,32.55
441296,521,32.87
441311,523,32.23
441326,525,30.62
441341,527,32.55
441357,526,32.87
441373,521,32.55
441388,520,32.55
441404,511,32.55
441419,513,31.58
441435,509,31.26
441451,510,32.87
441467,509,32.87
441482,501,31.26
441498,509,31.90
441514,508,32.55
441530,503,32.55
441546,501,32.55
441561,509,32.23
441576,507,31.26
441591,515,33.19
441607,509,32.55
441623,512,32.23
441638,513,32.55
441654,508,32.55
441669,509,32.87
441684,510,33.19
441700,508,32.55
441716,507,32.55
441731,505,32.55
441746,507,32.55
441761,508,32.55
441777,507,32.87
441793,507,32.87
441809,507,31.58
441824,509,32.87
441839,509,32.55
441855,509,33.19
441871,502,32.87
441887,509,32.55
441902,507,32.55
441917,506,31.90
441933,510,32.23
441949,512,32.55
441964,512,30.94
441980,519,32.87
441996,524,33.19
442011,528,32.87
442027,528,31.90
442042,528,32.87
442058,521,30.94
442074,523,31.26
442089,523,32.23
442104,522,32.55
442119,518,33.19
442135,514,32.55
442150,506,32.55
442165,512,32.55
442180,509,31.58
442196,509,32.55
442211,509,31.26
442226,505,31.26
442242,508,32.55
442257,514,32.87
442272,515,32.55
442287,513,32.55
442302,509,30.94
442317,512,32.87
442333,512,32.55
442348,511,32.55
442363,506,31.26
442378,506,32.55
442393,511,31.90
442408,503,32.55
442423,503,30.94
442438,510,33.19
442453,500,31.58
442468,499,31.26
442483,505,32.55
442498,506,32.87
442513,506,32.87
442528,507,32.87
442543,510,32.55
442558,510,32.55
442573,505,30.94
442588,511,32.55
442603,508,32.87
442618,506,32.55
442633,503,32.55
442648,500,31.58
442663,509,32.87
442678,514,32.87
442693,515,32.55
442708,522,32.55
442723,526,32.87
442738,528,32.55
442753,519,31.90
442768,527,32.87
442783,524,32.55
442798,515,31.58
442813,514,31.26
442828,512,31.90
442843,518,33.19
442858,509,32.87
442873,510,32.87
442888,509,30.94
442903,508,30.94
442918,503,32.55
442933,503,31.58
442948,503,30.94
442963,506,32.55
442978,509,32.55
442993,512,32.55
443008,514,31.90
443023,510,32.55
443038,506,32.87
443053,507,32.55
443068,511,32.55
443083,508,32.87
443098,508,32.55
443113,506,32.55
443128,502,32.87
443143,507,32.55
443158,510,32.87
443173,510,32.23
443188,507,32.55
443203,501,32.55
443218,505,32.87
443233,506,32.87
443248,505,31.58
443263,498,32.87
443278,497,32.55
443293,509,32.87
443308,504,32.23
443323,506,31.90
443338,501,32.55
443353,505,32.55
443368,504,31.90
443383,506,32.55
443398,501,30.94
443413,509,33.19
443428,504,32.87
443443,512,31.58
443458,521,32.23
443473,519,32.55
443488,519,31.58
443503,525,32.55
443518,527,32.87
443533,515,31.26
443548,521,32.23
443563,521,32.23
443578,518,30.62
443593,518,32.87
443608,519,33.19
443623,514,31.26
443638,513,32.23
443653,513,32.87
443668,512,32.55
443683,509,30.94
443698,509,32.87
443713,507,31.26
443728,508,31.26
443743,512,31.26
443758,515,31.58
443773,508,31.58
443788,508,30.62
443804,512,32.87
443819,511,32.87
443834,512,32.55
443849,508,32.87
443864,503,31.26
443879,503,32.55
443895,504,32.87
443910,500,32.87
443925,510,32.87
443940,510,32.87
443955,510,32.87
443970,508,32.23
443985,502,32.87
444000,498,32.87
444016,498,32.55
444031,506,32.87
444046,509,33.19
444061,512,32.55
444076,510,32.55
444091,514,32.87
444107,509,32.23
444123,511,32.23
444138,504,32.55
444154,508,32.87
444169,512,33.19
444185,509,32.55
444201,516,32.55
444216,519,32.55
444232,523,32.55
444248,526,32.55
444263,526,32.55
444279,526,32.87
444295,520,31.26
444310,528,31.58
444325,525,32.87
444340,523,32.87
444356,518,33.19
444371,517,32.87
444387,516,31.58
444402,513,31.90
444418,503,31.90
444433,504,31.26
444449,501,32.23
444465,509,32.55
444481,511,32.87
444497,511,32.55
444513,513,32.55
444529,514,32.87
444545,512,32.55
444561,516,31.26
444577,510,31.90
444592,513,32.55
444608,513,33.19
444623,513,32.23
444639,510,31.26
444655,511,31.90
444670,508,32.55
444686,507,32.55
444702,505,31.58
444717,501,31.26
444733,499,31.26
444748,498,31.90
444764,508,32.87
444779,505,32.87
444795,498,31.26
444811,509,32.87
444826,508,32.87
444842,505,33.19
444857,511,32.87
444872,515,32.87
444888,513,32.87
444903,515,32.87
444919,513,32.55
444934,515,32.87
444950,521,30.94
444966,525,33.19
444981,528,32.55
444997,522,30.94
445012,526,32.55
445027,517,31.26
445042,523,31.26
445058,516,32.55
445073,514,32.55
445088,507,32.55
445103,512,32.87
445118,502,31.26
445133,507,33.19
445148,501,30.62
445163,501,31.58
445178,506,32.87
445193,512,32.55
445208,513,33.19
445223,515,32.23
445238,509,32.87
445253,516,32.87
445268,514,32.23
445283,509,30.94
445298,504,31.26
445313,504,31.26
445328,511,32.87
445343,511,32.87
445358,510,32.87
445373,507,31.58
445388,506,31.26
445403,504,30.94
445418,499,31.90
445433,499,31.26
445448,504,32.55
445463,498,32.55
445478,504,32.23
445493,507,32.87
445508,509,32.87
445523,509,32.23
445538,509,32.87
445553,510,31.58
445568,508,32.87
445583,504,32.87
445598,514,32.23
445613,516,32.87
445628,522,32.87
445643,527,32.87
445658,529,32.87
445673,532,32.55
445688,527,31.58
445703,526,32.55
445718,520,31.90
445733,518,32.23
445748,513,32.23
445763,508,32.87
445778,512,32.55
445793,511,31.58
445808,511,32.55
445823,513,32.55
445838,507,32.23
445853,508,32.55
445868,510,32.87
445883,507,32.87
445898,505,32.55
445913,512,32.55
445928,513,32.87
445943,516,32.87
445958,509,31.58
445973,515,32.87
445988,506,31.58
446003,509,32.55
446018,507,32.55
446033,505,32.23
446048,505,32.55
446063,503,32.55
446078,505,32.87
446093,503,31.58
446108,508,32.55
446123,505,31.58
446138,507,32.55
446153,506,33.19
446168,501,32.87
446183,499,32.23
446198,505,31.90
446213,499,32.87
446228,509,32.87
446243,512,32.87
446258,515,32.87
446273,515,31.58
446288,520,32.55
446303,525,32.55
446318,526,31.58
446333,526,32.55
446348,524,33.19
446363,521,31.26
446378,524,32.55
446393,526,32.55
446408,522,32.87
446423,513,31.26
446438,517,32.55
446453,512,33.19
446468,512,32.55
446483,508,32.87
446498,507,32.55
446513,508,32.55
446528,507,32.55
446543,512,31.90
446558,511,32.87
446573,506,32.55
446588,514,32.55
446603,511,32.55
446618,509,32.23
446633,508,31.26
446648,512,32.87
446663,512,32.87
446678,510,32.55
446693,513,32.55
446708,509,31.58
446723,512,32.55
446738,505,31.26
446753,510,31.90
446768,498,31.26
446783,504,32.87
446798,503,31.90
446813,502,32.55
446828,505,32.55
446843,506,33.19
446858,510,32.87
446873,502,32.55
446888,509,32.55
446903,508,32.87
446918,499,32.23
446933,506,32.87
446948,509,32.55
446963,506,32.55
446978,507,31.58
446993,511,32.55
447008,527,32.55
447023,525,31.58
447038,524,31.90
447053,526,30.94
447068,524,31.26
447083,525,33.19
447098,516,32.23
447113,521,32.55
447128,516,31.58
447143,518,32.87
447158,514,30.94
447173,511,30.94
447188,512,32.55
447203,512,32.55
447218,511,32.55
447233,507,31.58
447248,510,32.87
447263,512,32.23
447278,510,32.87
447293,506,31.58
447308,513,32.55
447323,518,32.87
447338,505,32.55
447353,510,32.87
447368,510,32.87
447383,510,32.55
447398,505,31.26
447413,508,33.52
447428,500,31.90
447443,509,32.87
447458,504,31.26
447473,508,32.87
447488,502,32.87
447503,505,32.87
447518,506,32.87
447533,505,31.26
447548,503,32.55
447563,505,32.87
447578,508,31.58
447593,500,32.55
447608,507,30.94
447623,508,32.55
447638,507,32.55
447653,503,32.55
447668,501,32.55
447683,500,32.23
447698,509,33.19
447713,510,31.58
447728,515,32.55
447743,523,32.87
447758,526,32.55
447773,528,32.55
447788,530,32.55
447803,528,32.87
447818,528,31.90
447833,524,31.58
447848,521,32.55
447863,520,32.87
447878,519,32.55
447893,510,31.90
447908,514,32.87
447923,513,31.26
447938,511,32.55
447953,508,32.87
447968,510,33.19
447983,507,32.87
447998,509,32.87
448013,511,32.87
448028,513,32.87
448043,507,32.55
448058,515,32.55
448073,510,31.26
448088,506,32.55
448103,512,31.58
448118,512,32.87
448133,508,32.87
448148,503,32.55
448163,508,32.87
448178,509,31.58
448193,509,32.55
448208,510,32.87
448223,511,32.55
448238,509,32.87
448253,500,32.55
448268,499,32.55
448283,501,31.26
448298,504,30.94
448313,504,32.23
448328,504,32.55
448343,510,33.52
448358,509,31.26
448373,510,32.55
448388,510,32.55
448403,507,32.87
448418,501,32.55
448433,503,33.19
448448,505,32.55
448463,506,32.87
448478,510,32.87
448493,511,32.55
448508,516,32.55
448523,522,32.87
448538,524,32.87
448553,522,32.55
448568,526,32.87
448583,517,32.87
448598,519,31.26
448613,522,32.87
448628,522,31.26
448643,517,31.58
448658,517,32.55
448673,519,32.55
448688,516,32.55
448703,510,32.87
448718,506,31.90
448733,504,32.23
448748,510,30.62
448763,509,32.87
448778,509,33.52
448793,514,32.55
448808,510,30.94
448823,509,31.26
448838,513,31.90
448853,512,31.58
448868,513,32.55
448883,512,32.87
448898,503,32.55
448913,506,31.26
448928,502,31.58
448943,507,31.58
448958,511,32.23
448973,510,33.19
448988,500,31.58
449003,508,32.23
449018,504,32.55
449033,504,32.55
449048,503,32.87
449063,498,31.58
449078,508,31.26
449093,508,32.87
449108,508,32.87
449123,504,30.94
449138,507,31.90
449153,504,32.55
449168,506,32.55
449183,507,32.55
449198,504,32.23
449213,506,32.23
449228,506,32.55
449243,503,31.26
449258,509,32.23
449273,503,31.58
449288,503,31.90
449303,508,31.26
449318,515,32.87
449333,518,31.26
449348,519,32.87
449363,522,32.87
449378,519,30.94
449393,524,32.55
449408,526,32.87
449423,523,32.23
449438,519,32.87
449453,508,32.87
449468,519,32.87
449483,512,32.55
449498,512,31.90
449513,511,32.55
449528,504,31.90
449543,514,31.58
449558,515,32.55
449573,514,32.55
449588,514,32.55
449603,507,31.26
449618,512,32.55
449633,506,31.58
449648,510,32.87
449663,512,32.87
449678,509,31.26
449693,514,32.87
449708,510,31.58
449723,515,32.55
449738,511,32.87
449753,514,32.87
449768,508,32.23
449783,507,32.87
449798,508,32.23
449813,507,31.26
449828,508,32.87
449843,508,32.87
449858,509,32.23
449873,510,32.87
449888,502,32.87
449903,510,32.87
449918,509,33.19
449933,509,32.23
449948,507,32.87
449963,502,32.55
449978,512,32.23
449993,504,32.55
450008,510,32.55
450023,510,32.55
450038,513,31.58
450053,514,33.19
450068,504,32.55
450083,513,31.26
450098,514,32.87
450113,520,32.87
450128,518,32.55
450143,524,31.26
450158,520,31.26
450173,523,32.87
450188,521,30.94
450203,515,31.58
450218,513,32.55
450233,515,33.52
450248,512,33.19
450263,510,31.90
450278,512,33.19
450293,514,32.55
450308,512,31.58
450323,509,32.55
450338,512,31.26
450353,512,32.55
450368,512,32.55
450383,507,32.55
450398,505,31.26
450413,512,32.87
450428,507,32.23
450443,513,32.55
450458,516,32.55
450473,515,31.26
450488,516,31.26
450503,514,32.87
450518,512,32.55
450533,509,31.26
450548,505,30.62
450563,507,32.87
450578,509,30.94
450593,508,32.55
450608,507,32.87
450623,512,32.23
450638,508,31.26
450653,506,31.90
450668,506,32.87
450683,506,32.87
450698,508,32.55
450713,505,32.55
450728,508,33.19
450743,511,31.26
450758,511,32.87
450773,512,32.23
450788,515,32.87
450803,512,32.55
450818,516,32.55
450833,515,31.58
450848,516,32.87
450863,519,31.26
450878,520,32.87
450893,523,32.55
450908,522,31.58
450923,523,32.23
450938,522,32.55
450953,517,32.55
450968,518,32.55
450983,511,32.87
450998,510,32.23
451013,509,32.55
451028,512,32.23
451043,511,31.26
451058,505,32.55
451073,514,32.87
451088,509,32.55
451103,512,31.26
451118,513,32.23
451133,506,32.55
451148,504,32.55
451163,513,32.87
451178,507,30.62
451193,513,32.23
451208,514,31.26
451223,513,31.58
451238,513,30.94
451253,507,32.23
451268,507,32.55
451283,509,31.26
451298,506,32.87
451313,506,32.87
451328,504,32.23
451343,501,33.19
451358,510,32.55
451373,510,31.58
451388,507,31.58
451403,508,32.87
451418,508,32.87
451433,509,31.58
451448,503,32.55
451463,508,31.90
451478,510,32.87
451493,515,30.94
451508,513,32.55
451523,522,33.19
451538,519,30.94
451553,521,33.19
451568,523,32.87
451583,515,31.26
451598,521,32.87
451613,512,31.26
451628,514,30.94
451643,516,32.55
451658,507,32.23
451673,514,32.55
451688,514,33.19
451703,507,33.19
451718,508,31.58
451733,509,32.87
451748,504,32.55
451763,511,32.87
451778,510,32.87
451793,512,32.55
451808,512,32.55
451823,515,32.87
451838,514,32.87
451853,514,32.87
451868,508,32.55
451883,503,32.87
451898,510,32.87
451913,508,31.58
451928,507,32.87
451943,503,31.58
451958,503,32.55
451973,512,32.55
451988,509,32.87
452003,502,33.19
452018,501,31.58
452033,507,33.19
452048,508,32.87
452063,497,31.58
452078,505,31.58
452093,507,32.23
452108,503,32.87
452123,512,32.87
452138,512,33.19
452153,508,32.55
452168,507,30.94
452183,512,31.26
452198,513,32.55
452213,516,32.87
452228,517,32.55
452243,523,33.19
452258,520,32.23
452273,528,32.87
452288,524,33.19
452303,521,31.26
452318,520,32.55
452333,510,31.58
452348,515,32.87
452363,514,31.90
452378,513,32.87
452393,508,32.87
452408,513,32.87
452423,516,32.23
452438,514,32.55
452453,507,31.58
452468,503,32.87
452483,506,31.26
452498,505,32.55
452513,505,31.58
452528,504,32.23
452543,514,32.55
452558,511,31.58
452573,512,32.23
452588,512,32.55
452603,512,31.90
452618,505,31.26
452633,502,31.26
452648,506,32.87
452663,503,32.55
452678,500,32.87
452693,507,31.26
452708,508,32.55
452723,505,30.94
452738,509,32.87
452753,505,31.26
452768,501,32.87
452783,505,32.23
452798,502,30.94
452813,499,31.90
452828,507,32.87
452843,509,32.55
452858,500,32.55
452873,510,32.55
452888,505,32.55
452903,509,32.87
452918,511,32.87
452933,514,32.23
452948,515,32.55
452963,513,31.26
452978,517,32.23
452993,522,32.55
453008,523,32.87
453023,525,32.55
453038,527,32.87
453053,525,32.87
453068,517,32.55
453083,514,31.90
453098,514,32.55
453113,514,32.55
453128,512,31.58
453143,511,33.19
453158,508,32.55
453173,516,31.90
453188,513,32.87
453203,509,31.26
453218,513,32.87
453233,502,33.19
453248,504,30.94
453263,504,31.58
453278,509,32.55
453293,510,31.58
453308,513,32.55
453323,507,32.23
453338,510,32.87
453353,512,32.55
453368,512,32.55
453383,502,32.87
453398,510,32.55
453413,509,32.87
453428,499,31.58
453443,506,33.19
453458,505,31.90
453473,510,31.58
453488,510,31.58
453503,507,32.87
453518,508,30.94
453533,508,32.87
453548,508,31.58
453563,507,32.55
453578,507,32.87
453593,506,33.19
453608,508,32.55
453623,505,31.58
453638,510,33.19
453653,509,33.19
453668,507,32.87
453683,506,32.55
453698,502,32.55
453713,506,32.55
453728,503,32.87
453743,511,32.55
453758,518,31.26
453773,517,31.58
453788,521,32.87
453803,520,32.55
453818,520,32.87
453833,521,32.23
453848,509,32.55
453863,517,32.23
453878,518,32.23
453893,518,32.23
453908,513,32.55
453923,516,32.87
453938,516,32.55
453953,508,31.26
453968,511,32.87
453983,507,30.94
453998,506,32.55
454013,509,32.87
454028,509,32.87
454043,507,32.87
454058,511,32.55
454073,515,31.90
454088,512,32.55
454103,508,32.87
454118,511,32.55
454133,509,32.55
454148,503,33.19
454163,505,33.19
454178,507,32.55
454193,507,32.87
454208,509,31.90
454223,507,31.58
454238,510,32.55
454253,509,30.94
454268,508,32.55
454283,506,32.55
454298,504,32.55
454313,497,32.55
454328,506,32.87
454343,505,32.23
454358,508,32.87
454373,511,32.87
454388,510,32.55
454403,507,31.26
454418,510,32.23
454433,508,32.55
454448,497,30.94
454463,505,32.87
454478,506,32.55
454493,507,32.55
454508,509,32.87
454523,502,32.23
454538,509,32.55
454553,508,31.26
454568,507,32.87
454583,512,31.58
454598,514,32.87
454613,516,32.87
454628,519,32.87
454643,515,32.55
454658,520,33.19
454673,517,32.87
454688,518,31.26
454703,521,32.55
454718,517,32.55
454733,517,31.26
454748,513,32.55
454763,506,30.62
454778,512,33.19
454793,513,32.55
454808,515,32.23
454823,514,32.23
454838,513,32.87
454853,505,31.58
454868,510,32.23
454883,510,32.87
454898,507,32.87
454913,503,31.58
454928,511,31.58
454943,511,32.23
454959,507,31.58
454974,512,32.87
454989,516,32.55
455004,514,32.55
455019,513,32.87
455034,510,33.19
455049,509,32.55
455064,506,32.87
455079,506,32.87
455094,507,31.58
455110,510,32.55
455125,507,32.55
455140,503,32.87
455155,511,32.87
455171,506,32.55
455186,508,32.87
455201,509,32.55
455216,506,32.87
455231,508,32.87
455246,507,32.87
455261,510,32.23
455276,503,32.87
455291,511,32.87
455306,511,32.23
455321,509,31.26
455336,514,31.58
455351,510,32.87
455366,504,31.90
455381,511,32.87
455396,511,32.55
455411,513,33.19
455426,519,33.52
455442,513,32.87
455457,515,31.26
455472,521,32.87
455487,521,32.87
455502,516,32.87
455517,513,32.55
455533,516,32.55
455548,511,32.55
455564,507,32.87
455580,511,32.87
455595,509,32.55
455611,509,32.23
455626,509,32.55
455642,506,32.55
455658,512,32.87
455673,511,32.87
455689,514,32.23
455705,513,33.19
455721,515,31.26
455736,509,31.26
455751,505,31.58
455766,503,31.90
455782,510,33.19
455797,508,31.26
455812,499,31.26
455828,503,31.26
455844,507,32.55
455859,504,32.55
455875,507,32.55
455890,511,33.19
455906,510,32.87
455922,511,30.94
455937,510,31.58
455953,509,30.94
455968,507,31.26
455984,502,32.87
456000,510,33.19
456015,500,32.87
456031,506,33.52
456046,501,31.58
456062,510,32.23
456078,503,32.55
456093,512,31.58
456109,506,32.55
456125,514,32.23
456140,518,31.90
456156,513,31.58
456171,521,32.87
456187,521,32.87
456203,517,31.26
456218,515,31.58
456234,511,32.23
456249,509,31.26
456265,510,30.94
456281,512,32.55
456296,506,31.58
456312,508,32.55
456327,510,32.55
456342,510,32.55
456357,511,32.87
456372,507,32.87
456387,508,32.87
456402,511,31.58
456417,513,32.55
456433,513,32.55
456448,512,33.19
456463,504,31.90
456478,509,31.58
456493,512,32.87
456508,510,32.55
456523,505,32.55
456538,510,32.55
456553,507,30.94
456568,503,32.55
456583,509,33.19
456598,506,33.19
456613,507,32.87
456628,506,32.55
456643,508,32.55
456658,507,32.87
456673,508,32.55
456688,509,32.55
456703,509,32.23
456718,508,31.26
456733,509,31.58
456748,501,31.26
456763,500,31.58
456778,506,32.55
456793,503,32.87
456808,503,32.55
456823,507,32.87
456838,510,32.23
456853,510,32.87
456868,508,32.87
456883,502,31.26
456898,507,32.55
456913,506,32.87
456928,506,32.87
456943,505,32.87
456958,512,31.26
456973,519,32.55
456988,516,32.23
457003,523,31.58
457018,520,32.55
457033,516,31.26
457048,516,32.87
457063,514,33.19
457078,516,33.19
457093,513,31.26
457108,516,32.55
457123,512,32.87
457138,511,32.55
457153,507,31.26
457168,513,32.55
457183,512,31.90
457198,507,30.94
457213,511,32.87
457228,511,31.26
457243,509,32.87
457258,508,30.94
457273,511,33.19
457288,514,32.55
457303,514,32.87
457318,512,32.87
457333,509,32.87
457348,510,32.55
457363,507,32.23
457378,508,32.55
457393,507,32.55
457408,504,31.26
457423,511,32.87
457438,512,32.55
457453,507,32.55
457468,503,30.94
457483,510,31.90
457498,506,32.87
457513,506,33.19
457528,503,32.55
457543,501,31.58
457558,504,31.26
457573,510,32.23
457588,510,32.87
457603,505,32.55
457618,510,32.87
457633,509,32.55
457649,507,32.55
457664,506,32.55
457679,504,33.19
457694,500,33.19
457709,507,32.55
457724,509,31.58
457740,509,32.87
457755,515,32.87
457770,516,31.26
457785,519,31.58
457800,514,32.87
457815,513,31.58
457830,519,31.58
457845,513,32.55
457861,520,32.55
457876,512,32.23
457891,519,32.55
457906,521,32.55
457921,519,31.90
457936,512,31.26
457952,515,31.90
457967,512,32.87
457982,513,32.55
457998,512,32.87
458014,511,32.87
458030,510,32.87
458046,507,31.26
458061,504,32.87
458077,510,32.55
458093,509,32.87
458108,507,32.23
458124,512,32.87
458139,516,32.87
458155,514,31.58
458171,508,33.19
458186,514,32.55
458202,512,32.55
458218,512,32.55
458234,514,32.23
458250,513,33.19
458266,505,31.26
458281,506,32.87
458297,507,31.58
458312,500,32.55
458328,505,32.87
458344,507,32.55
458359,502,31.26
458375,502,32.87
458390,509,30.94
458406,504,32.87
458422,512,31.58
458437,506,32.87
458453,514,32.55
458468,512,33.19
458484,507,31.90
458500,504,32.55
458515,511,32.23
458531,512,31.58
458546,510,32.55
458562,508,32.55
458578,514,32.87
458594,513,33.52
458609,518,32.55
458625,520,32.55
458640,521,32.55
458656,524,32.55
458672,526,32.87
458687,527,30.62
458702,527,32.55
458717,523,32.87
458732,520,31.58
458747,516,31.90
458762,508,31.90
458777,512,32.55
458792,513,32.87
458808,509,33.19
458823,509,31.26
458838,507,32.87
458853,511,32.55
458868,515,32.55
458884,514,32.87
458899,515,32.55
458914,508,32.23
458929,511,31.26
458944,508,31.58
458959,509,31.26
458974,515,32.23
458989,511,31.26
459004,508,31.90
459019,516,31.58
459034,511,32.87
459049,506,32.55
459064,501,33.19
459079,508,32.23
459094,510,33.19
459109,509,32.55
459124,507,31.58
459139,510,33.19
459154,510,33.84
459169,512,32.87
459184,504,33.19
459199,512,31.58
459214,502,32.87
459229,507,31.58
459244,508,32.87
459259,508,32.55
459274,504,31.90
459289,509,32.55
459304,512,31.58
459319,506,30.94
459334,512,33.19
459349,509,31.90
459364,516,32.87
459379,517,32.87
459394,517,31.26
459409,519,32.55
459424,521,32.87
459439,529,31.26
459454,521,31.26
459469,526,31.90
459484,521,31.58
459499,518,32.55
459514,511,31.58
459529,510,33.19
459544,509,32.55
459559,511,31.90
459574,506,33.19
459589,512,32.55
459604,512,32.87
459619,513,32.23
459634,512,32.87
459649,512,32.55
459664,512,32.55
459679,511,32.87
459694,513,32.87
459709,514,33.52
459724,506,32.23
459739,517,32.55
459754,516,32.87
459769,510,31.58
459784,503,32.23
459799,502,33.19
459814,507,32.55
459829,505,33.19
459844,501,32.23
459859,503,32.87
459874,504,31.58
459889,510,32.87
459904,512,32.87
459919,509,32.55
459934,510,32.23
459949,509,32.23
459964,506,32.23
459979,503,32.55
459994,505,32.87
460009,507,32.87
460024,501,32.55
460039,511,31.90
460054,513,32.23
460069,517,31.26
460084,515,31.58
460099,518,32.87
460114,518,32.87
460129,518,32.87
460144,518,32.55
460159,520,31.26
460174,518,30.62
460189,518,32.55
460205,519,32.55
460220,518,32.55
460235,507,31.58
460250,505,32.87
460265,515,32.55
460280,512,32.87
460295,508,32.55
460310,503,31.58
460326,509,32.55
460341,505,31.90
460356,513,33.19
460371,512,32.87
460387,515,32.87
460402,512,32.23
460417,513,32.55
460432,511,32.87
460447,507,32.55
460462,502,32.55
460478,507,32.55
460494,498,31.90
460510,502,31.26
460525,507,33.19
460541,507,31.26
460556,502,31.26
460572,511,32.55
460587,506,31.26
460602,510,31.58
460617,505,31.26
460633,506,31.58
460649,505,32.55
460664,509,32.87
460680,506,32.55
460695,497,31.26
460711,500,32.87
460727,501,32.23
460742,500,32.87
460758,509,32.23
460774,510,32.87
460790,509,32.23
460806,518,32.23
460822,516,31.58
460837,522,33.19
460853,516,32.55
460869,523,31.90
460885,523,33.19
460901,521,31.58
460916,519,32.87
460932,516,33.19
460948,512,33.19
460964,506,32.87
460980,511,32.55
460996,510,32.55
461011,502,31.26
461027,508,32.87
461043,502,31.58
461059,511,32.87
461075,510,32.55
461090,511,32.55
461105,510,32.87
461121,512,32.87
461137,508,32.87
461152,509,31.58
461168,512,31.90
461183,507,32.87
461199,511,33.19
461215,510,33.19
461230,507,32.87
461246,507,32.87
461261,501,32.55
461277,505,32.87
461293,498,32.23
461308,503,31.26
461324,505,30.94
461339,502,32.87
461355,507,32.55
461371,508,32.55
461386,511,32.87
461401,505,31.26
461416,509,32.55
461431,498,31.90
461446,500,31.58
461462,508,32.55
461477,506,32.87
461492,511,32.55
461507,511,32.55
461522,517,31.58
461537,518,31.58
461553,515,32.55
461568,518,31.58
461583,521,32.55
461598,525,32.55
461614,515,31.58
461629,511,31.26
461644,514,32.23
461659,505,31.90
461674,511,32.55
461689,516,31.90
461704,509,30.94
461719,515,32.87
461734,513,31.26
461749,511,32.55
461765,512,32.55
461780,507,31.26
461795,503,32.23
461810,510,32.55
461825,503,32.55
461840,511,32.23
461855,515,32.87
461870,514,32.55
461885,514,31.90
461900,512,33.19
461915,510,32.55
461930,507,32.55
461945,508,32.87
461960,508,32.87
461975,506,30.62
461990,507,30.94
462005,507,32.87
462020,512,31.26
462035,506,32.87
462050,501,32.55
462065,505,31.26
462080,508,32.23
462095,505,33.19
462110,507,32.87
462125,507,32.55
462140,509,32.55
462155,509,32.55
462170,502,31.26
462185,506,30.94
462200,510,31.58
462215,508,32.55
462230,507,33.19
462245,507,32.87
462260,510,32.55
462275,504,32.87
462290,515,32.87
462305,518,32.55
462320,525,31.26
462335,525,32.87
462350,528,32.55
462365,520,31.58
462380,523,32.55
462395,516,32.55
462410,512,31.58
462425,517,32.55
462440,515,32.55
462455,515,32.55
462470,511,32.87
462485,515,32.87
462500,515,32.87
462515,506,31.58
462530,506,32.23
462545,503,31.26
462560,503,31.90
462575,504,31.90
462590,512,33.19
462605,514,32.55
462620,509,31.58
462635,516,31.58
462650,507,31.26
462665,510,31.58
462680,509,32.87
462695,508,31.26
462710,506,32.87
462725,502,32.23
462740,513,32.87
462755,510,32.87
462770,511,32.55
462785,514,32.55
462800,511,32.87
462815,509,32.55
462830,509,32.87
462845,508,32.87
462860,505,31.26
462875,507,31.58
462890,510,32.87
462905,507,31.26
462920,506,32.55
462935,511,32.87
462950,503,31.90
462965,510,32.87
462980,503,32.87
462995,510,31.58
463010,513,32.55
463025,511,31.26
463040,514,32.87
463055,521,33.19
463070,522,32.87
463085,519,32.55
463100,522,33.19
463115,517,33.19
463130,522,32.55
463145,519,32.23
463160,516,32.23
463175,514,31.26
463190,509,31.58
463205,516,32.87
463220,510,31.26
463235,514,33.19
463250,513,32.55
463265,506,31.90
463280,509,31.90
463295,507,32.87
463310,510,31.26
463325,509,32.87
463340,513,32.55
463355,509,31.26
463370,515,32.87
463385,517,32.87
463400,516,33.19
463415,513,32.23
463430,508,33.19
463445,500,31.58
463460,509,33.19
463475,509,33.19
463490,509,32.87
463505,506,32.87
463520,512,32.55
463535,511,33.19
463550,513,31.90
463565,510,32.55
463580,509,32.55
463595,511,32.55
463610,502,32.87
463625,503,33.19
463640,508,31.58
463655,511,32.55
463670,511,32.87
463685,506,32.55
463700,513,31.90
463715,510,32.55
463730,505,31.90
463745,514,32.87
463760,517,32.55
463775,516,32.87
463790,521,32.87
463805,515,32.55
463820,525,32.87
463835,519,32.55
463850,513,32.23
463865,518,32.87
463880,517,33.19
463895,515,32.55
463910,511,32.87
463925,509,32.87
463940,511,32.87
463955,507,31.58
463970,509,31.26
463985,516,31.58
464000,508,32.87
464015,513,33.52
464030,513,32.87
464045,504,32.55
464060,508,33.19
464075,512,31.58
464090,504,31.58
464105,512,31.90
464120,514,31.58
464135,511,33.19
464150,512,32.55
464165,509,32.55
464180,502,32.87
464195,502,32.87
464210,508,32.55
464225,505,32.87
464240,506,31.58
464255,510,32.55
464270,508,31.26
464285,512,33.19
464300,508,32.55
464315,509,32.87
464330,504,31.26
464345,501,31.58
464360,506,32.87
464375,508,32.87
464390,502,32.55
464405,506,32.87
464420,514,32.23
464435,517,32.55
464450,519,32.87
464465,520,31.58
464480,520,33.52
464495,512,32.55
464510,522,32.87
464525,512,32.23
464540,522,31.90
464555,515,31.26
464570,523,32.55
464585,518,33.19
464600,517,33.19
464615,511,31.26
464630,514,32.87
464645,507,32.87
464660,509,33.52
464675,507,31.26
464690,511,32.55
464705,508,31.90
464720,512,30.94
464735,511,32.87
464750,515,31.58
464765,505,31.58
464780,511,32.55
464795,512,32.87
464810,502,32.55
464825,506,33.19
464840,504,32.55
464855,513,31.58
464870,514,32.55
464885,507,32.87
464900,514,32.55
464915,505,31.58
464930,510,31.90
464945,501,31.26
464960,507,33.52
464975,505,31.58
464990,508,32.87
465005,501,31.26
465020,507,30.94
465035,505,31.58
465050,509,32.55
465065,509,32.23
465080,505,32.87
465095,506,32.55
465110,508,31.58
465125,508,32.55
465140,511,33.19
465155,510,32.55
465170,519,32.55
465185,521,32.55
465200,517,32.55
465215,525,31.26
465230,518,32.55
465245,516,32.87
465260,525,32.55
465275,519,32.23
465290,519,32.55
465305,512,32.87
465320,520,32.87
465335,517,32.55
465350,518,32.87
465365,515,32.87
465380,507,32.87
465395,514,32.87
465410,507,30.94
465425,512,32.55
465440,512,31.58
465455,515,32.87
465470,509,32.55
465485,513,32.87
465500,517,32.55
465515,514,33.19
465530,507,31.90
465545,504,30.94
465560,509,31.90
465575,506,31.26
465590,506,31.58
465605,509,32.87
465620,509,32.87
465635,504,32.55
465650,512,31.26
465665,509,32.55
465680,505,33.52
465695,505,32.87
465710,500,31.26
465725,499,32.87
465740,506,31.90
465755,500,32.23
465770,507,31.26
465785,510,32.87
465800,503,30.94
465815,508,32.87
465830,508,32.55
465845,509,32.87
465860,507,32.87
465875,501,33.19
465890,507,32.55
465905,510,32.87
465920,517,31.90
465935,515,31.90
465950,524,32.55
465965,527,32.55
465980,523,30.94
465995,520,30.94
466010,522,31.26
466025,521,32.87
466040,519,32.87
466055,521,32.87
466070,520,32.87
466085,520,33.19
466100,516,32.87
466115,515,32.23
466130,512,32.87
466145,506,30.94
466160,511,32.87
466175,510,30.94
466190,512,32.55
466205,511,32.55
466220,514,33.19
466235,515,31.58
466250,515,33.19
466265,509,31.58
466280,515,32.87
466295,514,32.23
466310,515,32.87
466326,510,32.87
466341,509,32.87
466356,510,32.55
466371,508,32.55
466386,506,31.26
466401,509,31.26
466416,511,33.19
466431,509,32.87
466446,510,33.19
466461,507,32.23
466477,505,32.23
466492,502,31.58
466507,506,31.26
466522,503,31.26
466537,501,32.23
466552,507,32.87
466568,502,31.58
466584,512,32.55
466599,507,31.58
466614,506,31.58
466629,508,32.87
466644,509,33.19
466659,506,32.87
466675,508,31.90
466690,507,31.26
466706,518,31.90
466722,516,31.26
466737,522,33.19
466753,524,31.58
466768,520,32.55
466784,528,32.55
466800,530,32.55
466815,528,32.55
466831,526,32.55
466847,514,32.55
466862,514,31.26
466878,511,31.26
466893,511,32.55
466909,506,31.26
466925,510,32.55
466941,507,32.87
466956,505,31.26
466972,504,31.58
466988,506,32.87
467004,515,31.90
467020,516,33.52
467036,510,30.94
467051,509,31.90
467066,517,32.87
467082,514,32.55
467098,510,32.87
467113,516,31.58
467129,511,33.52
467145,510,32.87
467161,503,31.58
467177,506,33.19
467193,501,31.26
467208,505,32.87
467224,507,32.55
467239,501,31.58
467255,501,32.55
467270,509,32.87
467286,509,32.87
467302,512,32.55
467317,513,32.55
467333,506,31.90
467349,507,32.23
467364,512,32.87
467380,510,32.55
467395,510,32.87
467411,502,32.87
467427,511,33.19
467442,511,32.55
467458,511,31.58
467473,509,31.26
467489,514,32.55
467504,517,31.90
467519,520,32.87
467535,527,33.19
467550,526,31.26
467566,518,32.55
467581,516,31.90
467596,514,30.94
467611,508,32.55
467627,511,32.55
467643,503,32.23
467658,507,32.87
467674,501,31.26
467689,510,32.87
467704,513,32.55
467719,514,32.87
467734,513,32.87
467749,506,32.87
467765,512,32.87
467780,503,31.90
467795,505,32.87
467810,512,33.19
467825,505,32.87
467840,512,32.55
467855,510,32.87
467870,511,32.87
467885,506,31.58
467900,505,32.55
467915,508,32.55
467930,511,32.87
467946,507,32.87
467961,506,32.87
467976,501,30.94
467991,505,31.90
468006,503,32.55
468021,503,31.26
468036,502,31.26
468051,510,32.87
468066,510,33.19
468081,504,32.23
468096,506,31.26
468111,507,32.87
468126,507,32.87
468141,510,32.55
468156,511,32.55
468171,514,32.87
468186,520,33.19
468201,520,33.52
468216,524,32.87
468231,524,32.87
468246,522,32.87
468261,523,33.19
468276,522,32.87
468291,521,33.19
468306,518,32.55
468321,510,31.26
468336,518,32.23
468351,514,31.26
468366,508,32.23
468381,509,30.62
468396,507,32.87
468411,513,32.55
468426,510,32.23
468441,509,32.87
468456,503,31.58
468471,512,33.19
468486,514,32.55
468501,516,32.87
468516,515,32.55
468531,518,32.55
468546,511,32.55
468561,511,32.87
468576,505,30.62
468591,505,32.87
468606,500,32.55
468621,509,31.90
468636,510,32.55
468651,510,33.19
468666,507,32.87
468681,511,32.55
468696,505,31.26
468711,506,31.58
468726,500,31.58
468741,506,32.87
468756,507,31.90
468771,508,31.26
468786,506,33.19
468801,503,32.55
468816,512,33.19
468831,504,30.62
468846,510,32.87
468861,507,32.55
468876,506,32.87
468891,509,32.55
468906,511,32.23
468921,513,32.87
468936,512,32.55
468951,522,33.19
468966,520,32.87
468981,526,32.87
468996,521,31.26
469011,517,32.87
469026,522,31.90
469041,516,31.26
469056,518,32.55
469071,516,32.87
469086,517,32.55
469101,513,32.55
469116,516,33.19
469131,513,32.87
469146,514,32.87
469162,515,32.23
469177,504,32.87
469192,512,32.55
469207,506,30.94
469222,510,33.19
469237,511,32.87
469253,513,32.87
469268,514,33.19
469283,505,32.55
469298,514,32.87
469313,514,32.55
469328,511,32.87
469343,510,32.55
469358,509,32.55
469374,507,32.23
469389,510,32.87
469404,511,31.58
469419,503,32.87
469435,509,32.87
469451,506,32.23
469466,504,32.87
469482,509,32.87
469498,512,32.23
469513,508,32.55
469528,503,32.55
469543,509,32.87
469558,505,31.90
469573,504,32.55
469589,499,32.23
469604,500,32.23
469620,513,32.87
469636,507,33.19
469652,512,32.87
469668,504,32.87
469684,507,31.58
469699,520,32.87
469715,520,32.87
469730,523,33.19
469745,518,33.19
469761,527,31.90
469777,523,33.19
469793,522,32.87
469809,516,31.26
469824,517,32.55
469840,516,33.19
469855,516,32.55
469871,514,32.87
469887,507,32.87
469902,515,32.23
469918,514,32.87
469933,506,32.87
469949,512,32.23
469965,516,33.19
469980,512,32.55
469996,514,33.19
470011,508,32.87
470027,510,32.55
470043,508,31.26
470058,510,32.87
470074,510,32.55
470089,510,31.58
470105,512,32.87
470121,508,32.87
470136,508,31.90
470152,503,32.23
470167,510,32.55
470183,512,33.19
470199,509,31.26
470214,502,32.87
470230,509,32.55
470245,509,32.87
470260,501,32.87
470275,501,31.26
470290,505,31.90
470305,506,32.87
470321,505,32.87
470336,501,32.55
470351,503,33.19
470366,511,31.90
470381,509,32.55
470396,503,31.58
470411,509,32.55
470426,507,31.58
470441,508,33.19
470456,503,32.87
470471,507,31.26
470486,514,32.87
470502,514,31.26
470517,519,32.87
470532,524,32.87
470547,524,32.87
470562,525,33.19
470577,520,32.87
470592,520,32.87
470607,512,31.90
470622,516,32.55
470637,517,30.94
470652,517,32.55
470667,518,33.19
470682,516,32.55
470697,511,32.87
470712,505,31.58
470727,506,31.26
470742,510,33.52
470757,509,32.87
470772,510,33.19
470787,514,33.19
470802,511,32.87
470817,507,32.55
470832,510,32.55
470847,509,31.58
470862,514,33.19
470877,511,31.26
470892,513,31.90
470907,511,32.87
470922,513,33.19
470937,512,32.87
470952,513,32.87
470967,510,31.58
470982,505,31.26
470997,511,32.87
471012,501,31.58
471027,502,31.58
471042,506,33.19
471057,507,33.19
471072,500,31.58
471087,509,33.19
471102,512,32.23
471117,512,32.87
471132,514,33.19
471147,511,32.55
471162,509,32.55
471177,501,32.87
471192,505,31.26
471207,501,31.58
471222,502,31.26
471237,505,31.58
471252,516,32.87
471267,517,32.55
471282,520,32.23
471297,523,33.19
471312,519,32.55
471327,525,32.55
471342,525,32.55
471357,518,31.90
471372,520,31.90
471387,522,32.55
471402,512,32.55
471417,512,33.52
471432,518,33.52
471447,512,31.58
471462,510,32.87
471477,508,32.55
471492,505,31.26
471507,507,31.58
471522,503,31.26
471537,510,32.55
471552,515,32.87
471567,515,31.58
471582,518,32.87
471597,510,31.90
471612,510,31.90
471627,513,31.58
471642,505,31.26
471657,512,32.55
471672,510,31.58
471687,505,32.55
471702,512,31.26
471717,510,31.58
471732,509,32.55
471748,510,31.26
471763,510,32.55
471778,506,32.87
471793,508,32.87
471808,504,32.87
471823,505,32.87
471839,500,33.19
471854,507,32.55
471869,506,32.87
471884,512,32.55
471899,505,30.94
471914,511,33.19
471929,505,32.55
471944,508,32.55
471960,511,32.87
471975,510,32.55
471990,511,32.55
472005,516,31.90
472020,519,32.55
472035,514,31.58
472051,521,31.26
472067,526,33.19
472082,524,31.58
472098,523,33.19
472113,522,31.58
472129,518,33.19
472145,518,32.55
472160,516,31.90
472175,513,33.19
472191,503,33.19
472207,510,32.87
472223,511,32.87
472239,508,33.19
472254,513,33.19
472270,511,32.87
472285,509,30.94
472301,512,32.87
472316,512,31.26
472332,511,31.26
472348,517,32.87
472363,514,33.19
472379,515,32.87
472395,507,31.58
472410,510,32.55
472425,511,33.19
472441,510,32.87
472456,504,32.87
472471,505,31.26
472487,508,32.23
472503,507,32.87
472518,506,33.19
472533,509,33.19
472549,507,32.87
472565,510,31.58
472580,510,32.87
472595,508,33.19
472611,501,31.58
472627,506,33.19
472643,508,32.55
472659,507,32.87
472674,511,32.55
472689,510,32.87
472704,508,32.87
472719,522,32.87
472734,525,32.55
472750,524,32.87
472765,521,32.23
472780,521,33.19
472795,518,33.19
472810,522,32.23
472825,521,31.58
472840,516,33.52
472855,514,32.87
472871,506,32.55
472886,507,30.94
472901,513,32.87
472916,513,32.55
472931,514,32.87
472946,513,32.87
472961,511,33.19
472976,509,31.26
472991,511,32.87
473006,509,32.55
473021,513,32.87
473036,514,32.87
473051,510,31.26
473066,515,31.90
473081,509,31.26
473096,514,33.19
473111,512,32.55
473126,511,33.19
473141,506,31.26
473156,505,32.55
473171,509,32.55
473187,508,32.55
473202,498,32.87
473217,505,31.58
473232,507,32.87
473247,510,32.87
473262,504,31.58
473277,505,32.55
473292,506,32.87
473307,507,31.58
473322,501,31.58
473337,506,32.87
473352,511,31.90
473367,507,31.26
473382,509,31.58
473397,509,31.58
473412,510,31.58
473427,518,32.87
473442,521,32.87
473457,519,31.90
473472,522,32.87
473487,526,32.87
473502,524,32.87
473517,526,32.55
473532,525,32.87
473547,519,32.87
473562,521,32.87
473577,510,31.58
473592,508,31.26
473607,512,32.55
473622,514,32.23
473637,512,31.90
473652,511,32.23
473667,516,31.90
473682,512,32.87
473697,508,31.58
473712,514,32.55
473727,511,32.87
473742,514,32.87
473757,506,31.58
473772,505,31.26
473787,504,31.90
473802,513,32.23
473817,514,32.23
473832,516,32.55
473847,511,33.19
473862,513,32.87
473877,510,32.87
473892,508,31.58
473907,506,32.55
473922,506,32.55
473937,504,31.58
473952,503,32.55
473967,506,31.26
473982,509,33.19
473997,505,31.26
474012,506,32.87
474027,506,31.90
474042,507,31.90
474057,502,31.26
474072,503,31.58
474087,508,32.23
474102,509,31.90
474117,514,33.19
474132,515,32.87
474147,512,31.58
474162,519,31.58
474177,521,32.87
474192,513,32.87
474207,523,32.55
474222,522,32.87
474237,523,32.55
474252,526,31.58
474267,525,32.55
474282,526,32.87
474297,522,32.87
474312,518,32.55
474327,516,32.55
474342,512,31.26
474357,510,32.55
474372,503,32.23
474387,514,32.87
474402,513,33.19
474417,514,33.19
474432,514,32.87
474447,509,32.55
474462,509,32.87
474477,516,32.87
474492,515,32.55
474507,505,31.26
474522,511,33.19
474537,507,30.94
474552,506,31.90
474567,513,32.55
474582,514,32.87
474597,512,32.87
474612,503,31.90
474627,507,33.19
474642,505,33.19
474658,504,31.26
474673,504,32.87
474688,507,33.19
474703,505,32.55
474718,506,31.58
474734,510,33.52
474749,507,31.58
474764,510,32.23
474779,510,32.55
474794,510,31.58
474810,508,32.23
474826,506,32.55
474841,510,32.87
474856,506,32.87
474871,505,32.55
474887,510,32.23
474903,511,32.23
474918,514,32.87
474934,512,32.87
474949,523,32.55
474965,521,31.26
474981,527,32.87
474997,525,32.55
475013,527,32.87
475029,522,32.55
475044,516,32.87
475060,520,31.58
475076,515,31.26
475091,512,32.55
475107,510,32.55
475122,511,31.58
475138,512,31.58
475153,512,32.55
475169,507,32.87
475185,506,31.90
475200,512,32.87
475216,517,32.55
475232,517,32.87
475247,519,32.87
475263,517,32.87
475278,509,32.87
475293,512,32.87
475308,509,31.26
475324,508,30.94
475339,507,31.58
475355,508,32.87
475371,504,31.26
475387,510,32.87
475402,509,33.19
475418,509,32.55
475433,504,31.58
475449,511,32.23
475464,509,31.90
475480,501,34.16
475496,510,32.23
475511,509,33.52
475527,503,30.94
475542,509,31.90
475558,502,32.87
475574,509,33.19
475589,507,32.87
475605,507,33.19
475621,502,32.87
475636,511,32.55
475651,512,30.94
475666,511,31.26
475682,511,31.58
475697,513,31.26
475713,512,32.23
475728,521,32.87
475743,519,32.87
475758,519,32.55
475773,522,33.19
475788,522,32.87
475803,523,32.87
475818,518,31.90
475833,522,32.87
475848,522,32.87
475863,521,32.23
475878,517,32.87
475894,516,32.55
475909,511,31.90
475924,512,33.19
475939,512,32.87
475954,509,33.19
475969,514,32.23
475984,507,32.87
475999,513,32.87
476014,515,33.19
476029,510,31.90
476044,514,33.19
476059,513,32.23
476074,511,32.87
476089,507,32.87
476104,512,32.87
476119,503,32.55
476134,511,32.87
476149,512,32.55
476164,514,32.23
476179,503,32.23
476194,509,32.55
476209,506,31.58
476224,508,31.90
476239,507,32.87
476254,509,31.90
476269,504,31.26
476284,511,32.55
476299,510,32.55
476314,510,32.87
476329,513,32.55
476344,510,31.90
476359,506,32.55
476374,507,31.90
476389,503,33.52
476404,509,32.87
476419,511,31.90
476434,512,33.19
476449,517,31.90
476464,509,32.55
476479,517,32.87
476494,520,32.87
476509,519,32.55
476524,518,32.55
476539,519,32.55
476554,515,32.87
476569,522,32.55
476584,519,32.87
476599,517,31.58
476614,518,33.19
476629,517,31.58
476644,515,31.58
476659,511,33.19
476674,506,31.26
476689,507,32.55
476704,511,32.55
476719,511,32.87
476734,513,32.87
476749,513,33.52
476764,518,32.87
476779,514,32.87
476794,514,32.87
476809,516,32.55
476824,513,32.55
476839,509,32.87
476854,513,32.55
476869,512,32.87
476884,509,30.94
476899,507,30.94
476914,514,32.87
476929,509,31.26
476944,509,32.55
476959,499,32.23
476974,504,32.87
476989,501,31.58
477004,502,31.26
477019,509,32.55
477034,508,32.87
477049,502,32.87
477064,506,31.58
477079,508,32.87
477094,509,32.87
477109,507,33.19
477124,506,33.52
477139,499,32.87
477154,501,32.23
477169,514,32.87
477184,511,32.23
477199,520,32.23
477214,516,32.55
477229,524,31.90
477244,523,32.55
477259,523,32.87
477274,520,32.87
477289,519,32.87
477304,519,32.87
477319,514,32.87
477334,515,32.87
477349,516,32.23
477364,516,32.87
477379,514,32.23
477394,505,32.55
477409,503,32.55
477424,510,31.26
477439,511,32.87
477454,503,32.55
477469,514,32.87
477484,507,31.58
477499,516,32.55
477514,516,32.55
477529,514,33.19
477544,514,32.55
477559,506,30.94
477574,502,32.55
477589,503,31.58
477604,501,31.90
477619,509,33.19
477634,506,31.90
477649,508,33.19
477664,507,32.55
477679,509,32.87
477694,503,31.58
477709,501,31.26
477724,505,32.87
477739,505,32.55
477754,507,32.87
477769,504,31.58
477784,509,32.87
477799,510,32.55
477814,508,32.87
477829,503,32.87
477844,503,31.58
477859,506,31.90
477874,511,32.55
477889,505,31.58
477904,515,32.87
477919,516,33.19
477934,522,33.19
477949,523,32.87
477964,518,33.19
477979,519,32.23
477994,526,31.26
478009,521,31.58
478024,515,32.87
478039,510,31.58
478054,513,32.87
478069,507,32.87
478084,514,33.19
478099,514,32.87
478114,515,32.55
478129,512,31.58
478144,513,32.87
478159,511,32.87
478174,510,32.87
478189,511,32.87
478204,510,32.55
478219,505,31.90
478234,513,31.26
478249,513,32.87
478264,509,31.90
478279,513,32.87
478294,506,32.87
478309,505,30.94
478324,508,32.87
478339,505,32.55
478354,508,32.23
478369,503,32.87
478384,510,32.23
478399,508,32.55
478414,505,31.26
478429,508,32.87
478444,507,32.55
478459,507,32.55
478474,503,32.55
478489,504,33.19
478504,505,32.87
478519,507,33.19
478534,509,31.90
478549,504,31.26
478564,510,32.55
478579,513,33.19
478594,510,32.87
478609,505,31.58
478624,511,32.87
478639,505,33.19
478654,515,31.26
478669,518,33.19
478684,523,30.94
478699,524,33.19
478714,526,32.87
478729,520,31.58
478744,526,32.87
478759,526,32.55
478774,519,32.87
478789,511,32.23
478804,516,32.55
478819,511,32.87
478834,518,31.26
478849,514,33.19
478864,515,32.87
478879,509,32.87
478894,517,32.55
478909,513,32.23
478924,510,31.58
478939,508,32.55
478954,506,32.23
478969,514,32.55
478984,512,33.19
478999,512,31.26
479014,515,32.55
479029,514,31.58
479044,512,32.55
479059,510,32.87
479074,505,31.58
479089,509,32.55
479104,509,31.58
479119,509,33.19
479134,512,32.87
479149,511,32.87
479164,509,32.87
479179,502,32.55
479194,507,32.55
479209,506,33.19
479224,497,32.87
479239,506,32.23
479254,507,32.55
479269,508,32.87
479284,508,32.55
479299,510,32.87
479314,503,32.87
479329,509,32.55
479344,512,32.55
479359,509,33.19
479374,509,31.58
479389,509,32.55
479404,504,32.55
479419,514,32.55
479434,511,31.90
479449,522,31.90
479464,526,32.87
479479,527,32.55
479494,526,32.87
479509,518,31.58
479524,518,31.90
479539,520,32.55
479554,518,32.87
479569,519,31.58
479584,519,32.87
479599,509,31.90
479614,516,32.87
479629,507,31.58
479644,511,32.87
479659,503,31.58
479674,507,32.55
479689,508,32.55
479704,509,31.90
479719,506,32.55
479734,513,33.19
479749,515,32.87
479764,514,32.23
479779,506,32.23
479794,511,32.55
479809,509,32.87
479824,505,31.26
479839,508,32.87
479854,508,31.26
479869,509,33.19
479884,509,30.94
479899,506,31.26
479914,503,32.87
479929,510,32.87
479944,511,31.90
479959,507,32.87
479974,502,31.26
479989,501,31.58
480004,508,32.87
480019,506,32.87
480034,504,31.58
480049,510,32.55
480064,505,32.87
480079,510,30.94
480094,504,31.90
480109,505,31.58
480124,510,32.55
480139,508,32.87
480154,509,32.87
480169,508,32.87
480184,510,32.55
480199,513,32.87
480214,512,32.87
480229,511,31.90
480244,516,33.19
480259,518,32.55
480274,521,32.55
480289,521,32.23
480304,522,33.19
480319,523,32.55
480334,526,32.87
480349,523,32.55
480364,521,32.23
480379,520,32.87
480394,515,32.87
480409,514,32.87
480424,513,32.87
480439,501,31.26
480454,510,32.87
480469,510,32.55
480484,512,32.87
480499,514,32.55
480514,514,31.90
480529,507,31.58
480544,507,31.26
480559,507,30.94
480574,512,32.87
480589,509,32.87
480604,509,32.55
480619,508,30.62
480634,504,32.87
480649,506,31.26
480664,509,31.26
480679,511,32.87
480694,511,32.87
480709,504,32.55
480724,505,32.87
480739,508,33.19
480754,506,32.55
480769,498,32.87
480784,509,31.26
480799,502,32.87
480814,510,32.87
480829,512,32.87
480844,504,31.58
480859,509,32.87
480874,506,32.55
480889,505,33.52
480904,508,32.87
480919,508,32.87
480934,502,32.23
480949,512,33.19
480964,509,31.26
480979,514,32.87
480994,513,33.19
481009,514,32.87
481024,508,32.23
481039,515,31.26
481054,514,31.26
481069,514,32.55
481084,514,31.90
481099,515,31.26
481114,519,32.23
481129,521,32.87
481144,513,31.90
481159,507,32.87
481174,513,33.19
481189,510,32.55
481204,510,32.87
481219,510,32.55
481234,510,33.52
481249,503,33.19
481264,504,33.19
481279,511,32.55
481294,511,32.87
481309,506,32.55
481324,505,33.19
481339,511,32.55
481354,513,31.58
481369,510,33.19
481384,512,32.87
481399,512,31.58
481414,512,32.55
481429,512,32.87
481444,510,32.55
481459,503,33.19
481474,506,31.58
481489,509,33.19
481504,502,31.26
481519,503,32.87
481534,507,32.55
481549,509,32.87
481564,508,32.87
481579,504,32.87
481594,503,32.87
481609,509,32.55
481624,501,32.55
481639,498,32.87
481654,506,32.55
481669,503,32.55
481684,511,32.23
481699,508,32.87
481714,515,31.58
481729,517,32.55
481744,520,33.19
481759,521,32.87
481774,521,31.58
481789,520,32.87
481804,521,31.26
481819,520,32.87
481834,512,32.87
481849,519,31.26
481864,515,32.87
481879,510,32.87
481894,514,31.26
481909,505,33.52
481924,504,32.55
481939,510,32.87
481954,509,31.58
481969,507,31.26
481984,507,30.94
481999,506,32.87
482014,513,33.19
482029,507,32.55
482044,513,32.87
482059,510,31.26
482074,507,33.19
482089,511,32.87
482104,511,32.87
482119,507,32.87
482134,509,33.19
482149,507,32.87
482164,509,33.19
482179,511,32.55
482194,502,32.23
482209,504,32.87
482224,506,32.87
482239,505,31.58
482254,500,32.87
482269,505,31.58
482284,503,33.19
482299,499,32.87
482314,506,31.26
482329,508,32.55
482344,506,32.55
482359,508,32.55
482374,505,32.87
482389,506,32.87
482404,510,32.87
482419,512,32.55
482434,514,32.23
482449,513,32.87
482464,518,32.23
482479,522,32.23
482494,519,33.19
482509,522,32.87
482524,517,30.94
482539,519,32.87
482554,517,33.19
482569,512,32.55
482584,518,32.23
482599,517,32.87
482614,515,32.87
482629,507,32.23
482644,505,31.90
482659,508,31.26
482674,504,33.19
482689,510,32.23
482704,510,32.87
482719,514,33.19
482734,511,33.19
482749,514,32.87
482764,515,32.87
482779,506,31.26
482794,508,31.26
482809,507,31.90
482824,511,33.19
482839,511,32.23
482854,511,32.55
482869,513,32.55
482884,507,31.58
482899,509,31.58
482914,512,32.55
482929,507,31.58
482944,503,32.55
482959,506,32.87
482974,505,31.58
482989,502,31.26
483004,505,32.87
483019,502,31.58
483034,507,32.55
483049,509,32.23
483064,508,32.55
483079,511,32.55
483094,510,32.23
483109,507,31.58
483124,509,32.87
483139,506,32.55
483154,508,32.87
483169,505,31.26
483184,512,32.87
483199,518,32.87
483214,520,32.87
483229,521,32.87
483244,525,32.87
483259,526,33.19
483274,525,32.87
483289,516,32.87
483304,516,31.26
483319,520,32.55
483334,522,31.26
483349,521,32.87
483364,517,32.87
483379,511,31.26
483394,515,32.55
483409,507,31.58
483424,507,33.19
483439,511,32.55
483454,515,32.87
483469,511,32.87
483484,513,31.58
483499,506,31.90
483514,516,32.87
483529,508,31.58
483544,510,31.26
483559,515,32.87
483574,512,32.87
483589,509,32.23
483604,513,32.55
483619,514,32.55
483634,506,32.55
483649,514,32.55
483664,506,32.23
483679,512,32.55
483694,510,32.87
483709,501,31.58
483724,506,31.58
483739,503,31.58
483754,509,32.87
483769,503,32.55
483784,512,32.55
483799,509,32.87
483814,512,31.58
483829,506,32.23
483844,509,32.55
483859,511,33.19
483874,508,32.87
483889,504,31.26
483904,507,32.87
483919,512,33.19
483934,510,32.87
483949,514,33.19
483964,506,31.90
483979,512,31.58
483994,511,31.58
484009,519,32.55
484024,518,32.87
484039,521,32.55
484054,525,32.87
484069,525,32.87
484084,525,32.55
484099,525,32.87
484114,519,31.26
484129,522,32.87
484144,520,32.87
484159,513,32.87
484174,515,31.26
484189,505,31.90
484204,511,32.87
484219,511,33.19
484234,512,32.87
484249,513,33.19
484264,515,31.90
484279,515,32.87
484294,514,32.87
484309,514,32.87
484324,508,31.58
484339,509,30.94
484354,511,32.55
484369,512,32.23
484384,514,32.55
484399,513,31.90
484414,514,31.26
484429,512,33.19
484444,514,32.87
484459,510,33.19
484474,506,31.26
484489,509,32.87
484504,506,32.87
484519,508,32.55
484534,500,31.90
484549,510,32.55
484564,509,32.87
484579,507,32.55
484594,510,33.19
484609,510,33.19
484624,507,32.87
484639,507,32.55
484654,509,32.87
484669,503,32.55
484684,506,32.23
484699,511,32.55
484714,506,32.87
484729,506,32.55
484744,517,31.58
484759,512,31.26
484774,517,32.23
484789,521,32.87
484804,523,31.58
484819,523,32.23
484834,524,32.87
484849,524,32.87
484864,523,32.87
484879,521,32.87
484894,518,32.55
484909,513,31.58
484924,505,32.23
484939,509,32.55
484954,508,32.87
484969,508,32.55
484984,514,31.58
484999,507,32.55
485014,513,32.87
485029,505,32.55
485044,510,31.58
485059,504,32.87
485074,506,31.26
485089,513,32.55
485104,505,32.55
485119,512,32.87
485134,512,31.90
485149,514,33.52
485164,506,31.58
485179,515,32.87
485194,509,33.19
485209,508,32.87
485224,505,32.87
485239,504,33.19
485254,503,32.87
485269,507,33.52
485284,508,32.55
485299,510,32.55
485314,508,32.87
485329,510,32.55
485344,510,32.87
485359,505,31.90
485374,508,32.55
485389,497,32.23
485404,507,32.55
485419,501,31.26
485434,509,32.55
485449,511,33.19
485464,513,31.26
485479,515,33.19
485494,512,31.26
485509,520,33.19
485524,517,33.19
485539,522,32.87
485554,521,33.19
485569,522,32.23
485584,520,32.55
485599,513,32.55
485614,517,32.87
485629,515,32.87
485644,516,33.19
485659,512,33.19
485674,508,33.19
485689,506,32.87
485704,506,32.55
485719,504,31.58
485735,512,31.58
485750,512,32.55
485765,514,32.23
485780,515,32.55
485795,513,32.87
485810,510,32.55
485825,510,32.87
485840,509,32.55
485856,504,31.58
485871,508,31.26
485886,508,32.55
485901,506,31.58
485916,509,32.87
485931,504,31.26
485946,507,32.23
485961,506,32.55
485976,505,31.90
485991,505,32.55
486006,505,32.87
486021,506,31.58
486037,505,32.87
486052,501,31.90
486067,514,31.26
486082,510,33.19
486097,510,32.55
486112,508,32.87
486127,512,33.19
486142,503,31.26
486157,508,32.55
486172,508,32.87
486188,506,33.19
486203,512,32.55
486219,515,32.55
486235,519,32.87
486250,522,32.87
486266,524,32.87
486282,523,33.52
486297,523,32.87
486313,523,30.62
486329,521,32.87
486345,520,33.52
486361,517,32.87
486376,509,32.23
486392,514,32.87
486408,505,32.23
486424,503,32.55
486439,508,32.87
486454,508,32.55
486469,510,33.19
486484,512,32.23
486500,512,33.19
486516,506,31.58
486532,516,32.55
486548,509,31.26
486564,512,31.26
486579,513,31.26
486595,511,32.87
486610,510,32.87
486625,509,32.87
486640,505,32.87
486655,501,33.19
486670,508,32.87
486686,508,33.19
486701,509,32.23
486717,510,32.87
486733,508,32.23
486748,512,32.87
486764,506,32.87
486779,507,32.87
486795,499,31.26
486811,507,33.19
486826,502,31.58
486842,499,31.58
486857,501,32.87
486872,506,32.55
486887,503,31.26
486902,510,32.55
486917,508,32.23
486933,506,31.58
486948,513,32.87
486963,515,32.87
486978,516,33.19
486993,519,32.87
487008,523,32.87
487023,524,31.26
487038,524,33.19
487053,522,31.90
487068,522,33.52
487083,515,32.55
487098,512,32.55
487114,516,32.55
487129,517,32.87
487144,507,32.87
487159,510,33.19
487174,512,32.87
487189,509,33.19
487204,509,32.87
487219,512,32.23
487234,509,31.26
487249,515,33.19
487264,510,32.55
487279,510,32.55
487294,512,31.26
487309,511,32.87
487324,511,33.19
487339,510,33.19
487354,509,33.19
487369,509,32.87
487384,512,32.87
487399,509,32.87
487414,509,31.26
487429,512,31.58
487444,510,32.87
487459,508,32.87
487474,507,32.87
487489,506,33.19
487504,506,32.87
487519,506,32.87
487534,506,31.58
487549,509,32.55
487564,511,32.87
487579,511,32.87
487594,505,33.19
487609,507,32.55
487624,508,31.90
487639,507,32.55
487654,508,33.52
487669,509,31.58
487684,511,32.55
487699,513,32.87
487714,513,32.87
487729,514,32.87
487744,512,31.58
487759,509,32.55
487774,511,32.55
487789,519,33.19
487804,520,31.26
487819,519,32.87
487834,525,32.55
487849,523,33.19
487864,522,31.90
487879,522,32.55
487894,519,32.23
487909,515,30.94
487924,514,33.19
487939,511,32.87
487954,510,32.55
487969,510,33.19
487984,513,33.19
487999,514,32.55
488014,514,31.90
488029,514,32.87
488044,506,32.87
488059,513,31.58
488074,512,33.19
488089,508,31.26
488104,512,32.87
488119,511,32.55
488134,512,33.19
488149,512,32.87
488164,512,33.19
488179,509,33.19
488194,511,32.55
488209,505,31.26
488224,502,32.87
488239,508,31.58
488254,504,31.58
488269,508,32.87
488284,511,32.55
488299,512,32.23
488314,502,31.58
488330,510,32.87
488345,510,32.87
488360,508,32.55
488375,509,32.55
488390,502,32.23
488405,509,32.55
488421,508,32.23
488436,508,32.55
488451,502,32.87
488466,512,32.87
488481,511,32.55
488496,517,32.55
488512,515,32.87
488528,511,31.90
488543,522,32.87
488559,521,32.87
488574,515,32.55
488589,523,33.19
488604,521,31.58
488620,519,31.26
488636,521,32.87
488651,522,32.55
488667,518,32.87
488682,518,32.87
488698,516,32.87
488714,515,32.87
488729,515,32.55
488745,509,33.19
488761,505,32.87
488776,512,31.90
488792,511,32.87
488807,513,31.90
488823,512,31.58
488839,506,31.90
488854,504,32.55
488870,515,32.55
488886,511,32.23
488902,508,31.58
488918,513,31.26
488934,511,32.55
488949,507,31.58
488965,513,32.23
488980,513,32.87
488995,510,32.87
489010,510,31.58
489026,506,32.55
489042,509,32.87
489057,503,32.87
489073,507,32.55
489088,507,32.55
489104,509,32.55
489120,510,32.55
489135,503,31.58
489151,512,32.87
489166,513,32.55
489182,513,32.87
489198,506,32.87
489213,515,33.19
489229,507,31.90
489244,515,32.87
489260,509,31.26
489276,519,33.19
489291,521,33.19
489307,520,32.55
489322,512,31.58
489338,517,31.90
489354,522,33.19
489369,516,30.94
489385,519,32.55
489400,511,31.90
489415,511,31.26
489430,513,32.55
489446,514,32.87
489462,512,32.55
489477,507,31.90
489493,505,32.23
489508,510,33.52
489523,511,32.87
489538,503,31.26
489553,512,32.87
489568,513,32.87
489583,512,31.58
489598,514,33.19
489614,514,32.55
489629,514,33.52
489644,504,32.55
489659,510,32.55
489674,506,32.87
489689,509,33.19
489704,506,32.55
489719,509,32.55
489734,503,31.58
489749,510,32.55
489764,510,32.87
489779,502,32.23
489794,510,32.87
489809,508,32.87
489825,507,33.19
489840,508,33.19
489855,505,33.52
489870,508,32.87
489885,512,32.55
489900,511,32.55
489915,512,31.90
489930,520,33.19
489945,520,32.23
489960,522,33.19
489975,522,31.90
489990,521,32.87
490005,520,32.87
490020,523,32.87
490035,521,31.26
490050,522,33.19
490065,521,32.23
490080,517,32.87
490095,510,32.87
490110,513,32.87
490125,509,32.23
490140,507,32.87
490155,501,32.55
490170,509,32.87
490185,511,33.19
490200,513,32.55
490215,506,32.87
490230,515,32.87
490245,515,32.55
490260,509,31.58
490275,512,32.55
490290,512,32.87
490305,513,32.55
490320,509,32.87
490335,510,32.87
490350,511,32.87
490365,501,31.58
490380,511,32.55
490395,508,32.87
490410,502,30.94
490425,506,32.87
490440,504,32.87
490455,499,31.58
490470,506,33.52
490485,507,33.19
490500,508,32.55
490515,503,32.87
490530,511,32.55
490545,507,32.87
490560,510,33.52
490575,504,32.87
490590,511,32.87
490605,516,33.19
490620,520,32.87
490635,523,33.19
490650,518,31.58
490665,526,32.87
490680,526,31.26
490695,526,32.23
490710,524,32.55
490725,521,33.52
490740,516,31.90
490755,510,32.55
490770,510,32.87
490785,508,31.90
490800,508,32.55
490815,517,32.87
490830,512,31.90
490845,506,31.90
490860,506,31.26
490875,511,32.55
490890,510,33.19
490905,507,31.58
490921,512,32.87
490936,507,31.58
490951,513,31.90
490966,512,32.55
490981,512,32.87
490996,513,33.19
491011,512,31.58
491026,506,31.26
491042,508,32.87
491057,506,33.19
491072,509,32.87
491087,507,32.87
491102,506,32.87
491117,504,31.58
491133,510,33.19
491149,507,31.58
491164,511,31.90
491180,510,32.55
491196,507,32.87
491211,503,31.58
491227,508,31.90
491242,501,31.90
491258,502,31.58
491274,509,31.58
491289,507,31.58
491305,516,33.52
491320,520,32.87
491335,518,32.87
491351,524,31.58
491367,527,31.90
491383,525,31.26
491399,528,32.55
491415,522,32.87
491431,525,33.52
491447,514,32.87
491462,518,32.87
491478,512,31.90
491494,516,32.87
491510,512,32.55
491526,509,32.87
491542,508,32.87
491558,512,33.52
491574,510,32.87
491590,508,32.87
491606,506,31.26
491622,511,32.87
491638,510,32.55
491653,510,31.90
491669,514,32.55
491685,513,32.87
491701,514,32.87
491717,506,33.52
491733,507,32.87
491749,506,32.87
491765,513,33.19
491780,504,32.23
491795,509,32.55
491811,509,33.52
491827,508,32.55
491842,508,32.23
491857,505,32.87
491872,505,32.55
491888,498,31.58
491903,508,33.19
491919,509,32.23
491935,512,32.87
491950,507,32.87
491965,513,32.87
491980,515,32.23
491996,517,33.19
492011,512,31.58
492027,518,32.55
492043,517,31.26
492058,517,30.94
492073,525,32.55
492088,519,31.26
492104,525,32.87
492119,524,33.19
492134,524,31.90
492149,523,32.87
492164,521,33.52
492179,518,32.55
492195,517,33.19
492210,514,32.55
492225,512,32.55
492240,508,32.87
492256,510,32.55
492271,512,33.19
492286,509,33.19
492301,514,32.55
492316,517,32.87
492331,509,32.55
492346,515,32.23
492361,515,33.19
492377,509,31.58
492392,511,31.58
492407,506,33.19
492422,509,32.87
492437,510,32.55
492452,511,32.87
492467,511,33.19
492482,508,32.87
492497,504,31.26
492512,508,33.19
492527,509,32.87
492542,510,32.23
492557,507,33.19
492572,507,32.55
492587,508,33.19
492602,503,32.87
492617,513,32.87
492632,512,33.52
492647,510,33.52
492662,512,33.52
492677,510,32.87
492692,511,33.52
492707,511,32.87
492722,514,33.19
492737,517,33.19
492752,522,32.87
492767,524,31.90
492782,523,33.19
492797,524,32.87
492812,525,32.55
492827,516,32.87
492842,521,32.55
492857,518,32.55
492872,516,32.55
492887,512,31.58
492902,515,32.55
492917,513,32.87
492932,507,32.87
492947,514,32.87
492962,512,32.87
492977,513,32.87
492992,504,30.94
493007,509,32.87
493022,503,33.19
493037,513,33.19
493052,513,32.87
493067,513,33.19
493082,514,31.58
493097,512,31.58
493112,508,30.94
493127,511,32.87
493142,509,32.55
493157,506,33.19
493172,503,31.26
493187,508,32.55
493202,502,31.26
493217,510,32.87
493232,511,33.19
493247,509,32.55
493262,508,32.87
493277,507,32.87
493292,504,32.87
493307,509,32.55
493322,497,32.87
493337,502,33.19
493352,506,32.55
493367,502,32.55
493382,509,31.26
493397,510,32.87
493412,513,32.87
493427,516,32.87
493442,517,31.90
493457,514,31.58
493472,515,32.55
493487,522,32.55
493502,517,32.87
493517,523,32.55
493532,522,32.87
493547,523,31.26
493562,513,31.26
493577,515,33.19
493592,506,31.58
493607,503,32.23
493622,507,32.87
493637,512,31.26
493652,509,31.90
493667,509,31.90
493682,512,32.87
493697,512,32.87
493712,502,32.87
493727,510,32.55
493742,511,32.87
493757,509,32.87
493772,503,32.87
493787,515,32.23
493802,511,33.19
493817,511,32.23
493832,511,32.87
493847,512,32.55
493862,500,32.87
493877,506,32.55
493892,505,33.19
493907,508,33.19
493922,505,32.87
493937,506,32.87
493952,506,32.55
493967,509,30.94
493982,509,32.55
493997,509,32.55
494012,503,31.58
494027,506,32.87
494042,507,32.87
494057,505,31.26
494072,507,32.55
494087,512,32.87
494102,513,31.58
494117,517,33.19
494132,518,32.87
494147,524,33.19
494162,525,32.87
494177,521,33.19
494192,522,33.19
494207,514,31.90
494222,521,32.87
494237,516,31.26
494252,521,32.55
494267,518,33.19
494282,517,31.58
494297,517,32.87
494312,514,32.55
494327,513,32.87
494342,512,33.19
494357,507,32.55
494372,511,33.19
494387,506,32.87
494402,511,32.87
494417,512,32.87
494432,512,33.52
494447,509,31.58
494462,505,32.55
494477,514,32.55
494492,504,31.58
494507,506,31.90
494522,510,32.55
494537,506,31.90
494552,505,32.87
494567,514,33.19
494582,505,32.87
494597,510,32.55
494612,509,33.19
494627,502,31.26
494642,507,32.87
494657,506,33.19
494672,500,32.23
494687,505,32.55
494702,506,32.87
494717,501,32.87
494732,511,32.87
494747,512,31.90
494762,504,32.55
494777,501,31.58
494792,502,31.58
494807,503,31.58
494822,509,32.87
494837,514,32.87
494852,518,33.19
494867,521,33.19
494882,517,32.55
494897,525,33.19
494912,520,31.26
494927,523,33.19
494942,514,32.55
494957,520,32.55
494972,515,31.26
494987,520,32.55
495002,516,32.55
495017,519,32.87
495032,509,32.87
495047,515,32.87
495062,508,31.90
495077,512,33.19
495092,503,31.58
495107,514,32.23
495122,510,32.55
495137,513,32.55
495152,511,31.26
495167,516,32.55
495182,514,33.52
495197,512,32.55
495212,504,32.87
495227,504,32.87
495242,509,31.90
495257,507,33.19
495272,502,31.26
495287,508,32.87
495302,505,31.58
495317,507,30.94
495332,510,33.19
495347,509,32.55
495362,507,33.52
495377,508,32.87
495392,500,32.87
495407,503,32.55
495422,508,31.90
495437,507,32.55
495452,511,32.87
495467,510,31.26
495482,503,32.55
495497,511,32.87
495512,507,32.87
495527,505,31.90
495542,507,32.55
495557,499,32.55
495572,502,32.87
495587,502,31.26
495602,510,32.55
495617,511,32.55
495632,506,32.87
495647,513,32.87
495662,506,32.55
495677,513,31.26
495692,512,31.90
495707,521,32.87
495722,519,32.55
495737,517,32.55
495752,522,31.58
495767,529,32.87
495782,528,32.87
495797,519,31.58
495812,518,33.19
495827,514,33.19
495842,512,33.19
495857,510,32.55
495872,510,32.87
495887,503,33.52
495902,512,32.87
495917,514,33.19
495932,514,31.90
495947,508,32.23
495962,509,32.23
495977,509,32.23
495992,510,32.87
496007,510,32.87
496022,512,32.55
496037,513,32.23
496052,513,32.87
496067,514,33.19
496082,512,32.87
496097,506,32.55
496112,510,33.52
496127,512,32.55
496142,507,32.87
496157,504,31.58
496172,510,32.87
496187,502,32.55
496202,509,32.23
496217,512,33.19
496232,512,33.19
496247,503,31.90
496262,501,31.90
496277,508,32.87
496292,505,31.58
496307,505,32.87
496322,505,31.58
496337,508,33.19
496352,509,32.87
496367,510,32.87
496382,512,32.55
496397,507,32.87
496412,502,31.90
496427,506,32.87
496442,506,31.58
496457,507,33.52
496472,509,33.19
496487,504,31.90
496502,512,32.87
496517,512,32.87
496532,509,31.58
496547,517,32.55
496562,521,33.19
496577,511,31.26
496592,517,31.58
496607,521,32.87
496622,524,32.55
496637,523,31.90
496652,519,31.26
496667,519,32.87
496682,518,31.58
496697,515,32.23
496712,511,32.55
496727,512,32.87
496742,509,32.87
496757,511,33.19
496772,505,32.87
496787,512,33.19
496802,506,32.23
496817,514,32.87
496832,513,32.87
496847,513,32.87
496862,510,32.87
496877,511,31.90
496892,506,31.58
496907,510,33.19
496922,512,32.87
496937,513,33.19
496952,507,31.26
496968,515,32.87
496983,513,32.55
496998,511,32.87
497013,510,32.87
497028,507,32.87
497043,507,33.19
497058,506,32.55
497073,507,32.23
497088,506,32.87
497103,508,33.19
497118,511,32.87
497133,512,32.87
497149,507,32.55
497164,510,32.87
497179,511,31.90
497194,505,32.55
497210,508,32.55
497225,509,31.58
497240,509,31.90
497255,506,32.55
497270,508,32.87
497285,508,32.87
497300,509,32.55
497315,508,31.26
497331,510,33.52
497347,513,32.87
497362,502,31.90
497377,510,32.55
497392,510,33.52
497408,510,31.58
497423,516,31.90
497439,517,32.55
497455,514,31.58
497470,518,31.26
497486,518,32.87
497501,526,33.19
497517,524,32.87
497533,523,33.19
497548,521,32.87
497563,512,33.19
497579,515,31.26
497595,513,32.87
497611,512,33.19
497626,511,31.58
497641,510,32.87
497657,508,32.87
497672,505,32.87
497688,505,31.90
497704,513,32.23
497719,515,33.19
497734,515,31.90
497749,514,31.90
497764,513,30.94
497780,508,32.23
497796,506,31.58
497812,512,32.55
497828,511,33.19
497844,509,33.19
497859,503,31.90
497875,507,33.19
497891,506,31.26
497907,507,31.58
497923,508,33.19
497939,503,32.23
497954,512,32.23
497969,509,32.87
497984,512,32.87
497999,511,31.58
498014,508,32.23
498030,509,32.87
498045,509,32.87
498061,507,33.19
498077,507,33.52
498092,507,32.87
498108,507,32.55
498123,510,33.19
498139,508,32.55
498154,510,32.55
498170,510,31.58
498186,508,33.19
498201,513,33.19
498217,514,32.55
498233,510,32.87
498248,515,32.23
498264,518,32.87
498279,517,32.55
498295,514,32.87
498311,516,33.52
498326,514,32.87
498342,513,31.26
498357,513,31.58
498372,518,32.55
498387,512,32.87
498402,517,32.55
498417,518,33.19
498432,515,32.87
498447,510,31.58
498463,511,33.19
498478,509,32.55
498493,506,31.26
498508,509,32.87
498523,507,31.26
498538,506,32.55
498553,514,33.52
498568,518,31.58
498583,516,32.87
498598,513,31.58
498614,516,32.87
498629,512,32.55
498644,511,33.19
498659,503,32.55
498674,507,32.87
498689,501,31.90
498704,507,32.87
498719,503,31.26
498734,510,32.87
498749,503,32.87
498764,510,33.19
498779,508,33.19
498794,501,31.58
498809,506,33.19
498824,500,31.58
498839,510,33.19
498854,508,33.52
498869,503,32.55
498884,512,32.87
498899,514,32.87
498914,513,33.19
498929,511,32.87
498944,510,32.87
498959,508,33.19
498974,507,31.58
498989,512,32.87
499004,518,32.23
499019,522,32.23
499034,519,31.58
