347072,832,32.87
347088,809,33.19
347104,787,32.87
347120,763,32.87
347135,745,32.55
347151,733,32.55
347167,721,32.87
347183,720,31.90
347199,727,32.87
347215,726,33.19
347230,733,32.55
347246,740,32.87
347262,745,32.87
347278,744,32.55
347294,743,32.23
347310,741,32.55
347325,741,33.19
347341,734,31.90
347356,730,32.87
347372,728,32.23
347388,729,33.19
347403,723,32.55
347419,722,32.23
347435,720,32.55
347450,719,32.23
347466,713,33.19
347481,715,33.19
347497,715,33.19
347513,728,32.55
347528,747,32.55
347544,776,32.55
347559,808,32.55
347575,838,32.87
347591,864,32.87
347606,877,32.87
347622,881,32.87
347637,877,33.19
347653,869,33.19
347669,848,33.52
347684,829,33.19
347700,809,32.23
347715,799,32.87
347730,771,32.23
347745,758,32.87
347760,747,32.87
347775,738,32.87
347790,732,32.23
347805,731,32.55
347821,726,32.23
347836,732,32.87
347851,729,32.55
347866,734,32.87
347881,736,32.55
347896,743,33.52
347911,737,32.87
347926,739,31.90
347941,743,32.87
347956,738,32.55
347971,737,32.55
347986,735,33.19
348001,728,32.55
348016,725,33.19
348031,723,32.87
348046,717,32.23
348061,714,32.55
348076,712,32.87
348091,714,32.55
348106,715,33.19
348121,722,32.55
348136,733,33.19
348151,758,31.90
348166,783,32.87
348181,817,31.90
348196,843,32.55
348211,862,33.52
348226,877,32.23
348241,874,32.87
348256,874,33.19
348271,854,32.23
348286,832,31.90
348301,812,33.52
348316,790,32.23
348331,769,32.23
348346,754,32.23
348361,737,32.55
348376,716,32.87
348391,703,32.23
348406,702,32.55
348421,698,33.19
348436,702,33.19
348451,707,32.23
348466,717,32.55
348481,727,33.52
348496,731,32.55
348511,738,32.23
348526,742,32.55
348541,742,33.19
348556,739,32.87
348571,736,32.23
348586,733,32.55
348601,725,32.23
348616,721,32.55
348631,710,33.19
348646,711,32.23
348661,703,33.19
348676,707,33.19
348692,706,32.87
348707,710,31.90
348722,711,32.87
348737,718,32.87
348752,726,32.23
348767,741,32.87
348783,771,33.19
348798,788,32.87
348813,817,32.55
348828,838,32.23
348843,855,32.55
348858,868,32.87
348874,869,32.55
348889,860,32.55
348904,848,32.87
348919,834,33.19
348934,816,32.87
348949,792,32.55
348965,770,32.23
348981,749,32.87
348996,732,33.19
349012,721,32.55
349028,716,32.23
349043,721,32.23
349059,729,32.87
349074,736,32.23
349090,743,32.87
349106,750,32.55
349121,752,32.23
349137,755,33.19
349153,754,32.55
349168,751,32.87
349184,746,32.87
349200,745,32.87
349216,745,33.19
349232,748,32.87
349248,741,33.19
349263,737,32.55
349279,729,32.87
349294,721,32.87
349310,713,32.55
349326,711,32.23
349341,712,33.19
349357,731,33.84
349373,758,32.55
349389,782,33.52
349405,821,32.87
349421,848,32.55
349437,872,32.87
349453,877,32.87
349469,878,32.55
349484,859,33.19
349500,849,32.87
349516,826,31.90
349532,804,32.55
349548,785,33.19
349564,772,33.19
349580,755,33.19
349596,747,33.19
349612,741,32.87
349627,731,32.87
349643,731,32.55
349659,726,31.58
349674,725,32.23
349690,731,32.55
349706,736,32.23
349721,736,32.87
349737,738,33.19
349752,739,32.87
349768,743,32.87
349784,733,32.23
349799,730,32.87
349815,723,33.19
349830,723,32.87
349846,723,32.87
349862,728,32.55
349877,732,32.87
349893,732,31.90
349908,734,32.87
349924,738,32.55
349940,739,32.87
349955,749,32.55
349971,766,31.90
349986,785,33.19
350002,808,31.58
350018,832,31.90
350033,836,32.87
350049,853,32.55
350064,850,33.19
350079,847,33.19
350094,842,32.87
350109,831,32.87
350124,819,32.87
350140,801,32.55
350156,783,32.55
350171,769,32.87
350187,758,32.87
350202,736,33.19
350217,725,32.55
350232,718,32.87
350247,716,32.23
350262,716,32.87
350278,717,33.19
350293,726,32.87
350308,734,31.26
350323,736,32.23
350338,745,32.55
350353,742,33.52
350368,745,32.23
350383,740,31.58
350398,738,32.87
350413,733,32.23
350428,728,31.90
350443,720,32.87
350458,722,32.87
350473,713,32.87
350488,711,32.23
350503,707,32.23
350518,704,32.87
350533,710,32.55
350548,729,32.87
350563,756,32.23
350578,789,32.55
350593,821,33.19
350608,848,32.23
350623,867,32.87
350638,875,32.55
350653,871,32.87
350668,863,32.55
350683,849,32.87
350698,830,33.52
350713,812,33.19
350728,796,32.87
350743,778,32.87
350758,761,32.55
350773,746,32.87
350788,734,33.19
350803,726,32.55
350818,720,32.55
350833,717,32.87
350848,719,33.19
350863,719,33.19
350878,726,32.87
350893,728,32.23
350908,731,32.87
350923,733,32.87
350938,733,32.55
350953,726,32.23
350968,734,32.55
350983,725,31.90
350998,721,31.90
351013,719,33.52
351028,722,31.90
351043,720,32.87
351058,718,32.87
351073,717,32.55
351088,710,32.87
351103,716,32.87
351119,721,32.87
351134,744,32.23
351149,776,34.16
351164,810,32.87
351179,843,32.55
351194,868,32.87
351210,884,32.87
351225,886,32.23
351240,883,32.55
351255,873,32.55
351271,855,33.52
351287,838,32.87
351302,819,32.87
351318,796,32.23
351334,777,33.52
351349,758,32.87
351365,745,33.19
351380,735,32.23
351396,726,33.19
351412,720,31.58
351427,722,32.23
351443,725,32.87
351459,730,31.90
351474,735,32.23
351490,738,32.87
351505,739,32.87
351521,737,32.55
351537,735,32.87
351553,731,32.23
351569,727,32.55
351585,725,32.55
351600,727,33.19
351616,715,32.87
351632,712,32.23
351647,711,32.55
351663,715,32.87
351679,718,32.23
351695,732,31.90
351711,756,32.87
351727,792,33.19
351743,828,32.55
351759,858,32.55
351775,883,32.87
351791,890,33.19
351807,886,33.52
351823,878,33.19
351839,866,32.23
351855,848,32.55
351871,828,31.90
351887,807,33.52
351903,782,33.19
351919,768,32.87
351935,745,32.55
351951,734,32.87
351967,723,31.90
351983,715,32.87
351999,718,32.23
352015,724,33.19
352031,725,32.87
352047,728,33.19
352062,731,31.90
352078,736,32.87
352094,736,31.90
352109,739,32.55
352125,735,32.87
352140,735,32.87
352156,730,32.55
352172,728,31.90
352187,724,32.55
352203,719,32.87
352218,713,32.23
352234,711,32.23
352250,713,32.55
352265,715,33.19
352281,734,32.87
352296,762,33.19
352312,792,33.19
352328,829,32.55
352343,859,32.87
352359,875,31.58
352374,886,33.52
352390,887,33.19
352406,871,32.55
352421,859,32.87
352437,846,32.87
352452,822,32.23
352467,800,33.19
352482,785,33.19
352497,763,33.84
352512,747,32.55
352528,732,32.23
352544,723,32.55
352559,721,32.87
352575,720,32.23
352590,725,33.19
352605,728,32.87
352620,733,32.55
352635,733,32.87
352650,737,32.55
352665,739,32.55
352680,738,32.55
352696,736,33.19
352711,736,32.87
352726,740,32.55
352741,732,32.55
352756,726,33.19
352771,724,32.55
352786,717,32.55
352801,714,32.87
352816,713,32.55
352831,718,33.19
352846,718,32.55
352861,732,32.55
352876,758,32.87
352891,791,32.23
352906,824,32.87
352921,846,32.87
352936,866,32.23
352951,877,32.87
352966,879,32.87
352981,873,32.87
352996,865,33.52
353011,849,31.58
353026,832,32.55
353041,813,33.84
353056,786,31.90
353071,767,33.19
353086,753,32.87
353101,736,31.90
353116,726,32.23
353131,718,33.52
353146,717,31.58
353161,719,32.87
353176,724,32.23
353191,724,32.55
353206,730,32.23
353221,731,32.87
353236,731,31.90
353251,731,32.23
353266,736,32.87
353281,731,32.23
353296,730,32.87
353311,725,32.23
353326,726,32.87
353341,721,32.87
353356,718,32.55
353371,721,32.23
353386,713,32.55
353401,711,32.55
353416,712,32.87
353431,718,32.23
353446,741,32.55
353461,763,32.87
353476,798,32.87
353491,832,32.23
353506,859,32.87
353521,875,31.90
353536,882,32.87
353551,875,31.90
353566,876,33.19
353581,861,32.87
353596,847,31.90
353611,827,33.19
353626,807,32.87
353641,794,32.55
353656,782,31.90
353671,757,32.23
353686,737,32.55
353701,722,32.55
353716,714,32.23
353731,712,33.19
353746,712,32.87
353761,719,31.90
353776,724,32.55
353791,728,32.23
353806,735,32.87
353821,732,32.87
353836,731,31.90
353851,728,31.90
353866,725,31.58
353881,730,31.26
353896,723,32.87
353911,721,32.23
353926,718,31.90
353941,716,32.23
353956,718,33.19
353971,713,32.87
353986,713,32.55
354001,715,32.23
354016,716,32.23
354031,733,32.55
354046,753,32.87
354061,784,32.55
354076,820,32.55
354091,849,33.19
354106,864,33.19
354121,878,33.19
354136,882,32.87
354151,878,33.52
354166,863,33.19
354181,849,32.87
354196,833,32.55
354211,816,32.87
354226,797,32.87
354241,781,31.58
354256,762,31.90
354271,746,32.87
354286,732,33.52
354301,718,32.87
354316,713,32.23
354331,714,32.55
354346,718,32.87
354361,725,32.87
354376,728,32.87
354391,734,32.87
354406,742,32.55
354421,737,32.55
354436,737,32.55
354451,734,32.55
354466,732,30.94
354481,729,32.87
354496,725,31.90
354511,724,32.55
354526,722,32.87
354541,717,32.23
354556,713,33.19
354571,709,31.90
354586,703,32.87
354601,707,32.87
354616,715,32.87
354631,733,32.87
354646,761,32.23
354661,797,33.19
354676,830,32.87
354691,858,32.87
354706,875,32.87
354721,882,32.55
354736,875,33.19
354751,867,32.23
354766,850,32.55
354781,837,33.19
354796,814,32.23
354811,800,32.87
354826,784,32.23
354841,765,32.23
354856,757,32.87
354871,736,32.87
354886,724,31.58
354902,723,33.19
354917,716,32.23
354932,717,32.23
354947,721,32.55
354962,727,33.19
354977,730,32.55
354993,731,32.23
355008,732,31.90
355023,732,33.19
355038,729,32.55
355053,728,32.23
355068,723,32.87
355084,719,32.55
355099,720,33.19
355114,715,32.55
355129,713,32.55
355144,712,32.55
355159,712,32.55
355174,710,32.87
355189,709,31.90
355204,723,32.87
355219,737,32.55
355234,762,33.19
355249,798,33.19
355264,823,32.87
355279,850,32.23
355294,864,32.55
355309,872,32.55
355324,867,32.23
355339,857,32.87
355354,842,32.87
355369,825,33.52
355384,805,32.55
355399,785,31.90
355414,766,32.55
355429,750,32.55
355444,736,32.87
355459,725,32.23
355474,720,32.55
355489,715,31.90
355504,719,32.55
355519,719,33.52
355534,718,32.55
355549,717,32.55
355564,727,32.87
355579,728,31.90
355594,734,32.23
355609,735,32.87
355624,734,32.87
355639,732,31.58
355654,730,33.19
355669,724,32.87
355684,721,32.55
355699,713,31.90
355714,713,32.87
355729,710,32.23
355744,712,32.55
355759,714,31.90
355774,720,32.55
355789,729,32.23
355804,752,33.19
355819,775,32.87
355834,804,32.55
355849,831,32.87
355864,850,31.58
355879,867,32.55
355894,869,33.19
355909,863,33.19
355924,858,33.52
355939,846,33.19
355954,827,32.55
355969,807,31.58
355984,786,32.55
355999,771,31.90
356014,753,32.23
356029,741,33.52
356044,728,33.19
356059,725,32.87
356074,721,32.23
356089,723,32.55
356104,722,32.55
356119,721,32.87
356134,729,32.23
356149,727,32.87
356164,734,32.87
356179,732,33.52
356194,737,31.90
356209,734,31.58
356224,731,32.55
356239,731,32.87
356254,729,32.87
356269,723,32.23
356284,720,32.87
356299,714,33.19
356314,711,31.58
356329,714,32.23
356344,715,32.87
356359,724,32.87
356374,739,32.55
356389,764,33.19
356404,795,32.23
356419,822,31.90
356434,846,32.87
356449,861,32.87
356464,879,33.19
356479,873,32.55
356494,871,33.19
356509,862,32.55
356524,848,33.19
356539,833,32.87
356554,815,32.87
356569,795,32.55
356584,776,32.55
356599,757,32.23
356614,742,31.90
356629,735,32.87
356644,727,32.55
356659,723,32.23
356674,722,32.23
356689,724,32.87
356704,727,33.19
356719,729,32.23
356734,730,32.23
356749,731,32.23
356764,732,32.23
356779,737,32.55
356794,735,32.87
356809,733,32.55
356824,737,33.52
356839,732,32.87
356854,723,33.19
356869,719,32.55
356884,718,32.87
356899,713,33.19
356914,711,32.55
356929,717,32.87
356944,727,32.55
356959,749,32.87
356974,778,32.55
356989,806,32.23
357004,833,32.23
357019,856,33.19
357034,867,33.52
357050,872,32.23
357065,872,32.87
357080,865,32.55
357095,856,32.87
357110,845,32.23
357125,824,33.19
357141,802,32.55
357156,781,32.23
357171,763,32.23
357186,744,32.55
357201,734,32.55
357216,721,32.55
357232,718,32.23
357248,720,32.87
357263,724,32.23
357278,728,32.23
357293,733,32.87
357309,738,32.87
357324,738,32.55
357340,737,32.55
357356,737,32.87
357371,730,32.87
357387,728,32.55
357403,725,32.87
357419,724,32.23
357434,720,32.55
357449,717,32.87
357465,712,33.19
357481,713,33.19
357497,707,32.55
357513,714,32.55
357529,725,32.87
357545,748,33.19
357561,779,32.87
357577,810,32.55
357593,840,32.23
357609,866,32.87
357625,873,32.87
357641,878,33.19
357657,876,33.52
357673,856,32.87
357689,838,32.87
357705,819,33.52
357721,801,33.19
357737,778,33.19
357753,760,32.87
357769,737,33.19
357785,727,32.87
357801,720,32.87
357817,718,32.87
357833,716,32.87
357849,723,32.55
357864,721,32.55
357880,726,32.87
357896,721,33.19
357911,731,32.55
357927,736,32.87
357942,736,32.87
357958,733,31.90
357974,731,32.55
357989,730,32.55
358005,724,32.23
358021,718,33.52
358036,707,33.52
358052,711,32.87
358067,703,32.55
358083,708,32.87
358099,711,31.90
358114,727,32.87
358130,753,32.55
358145,782,31.90
358161,811,32.55
358177,838,32.55
358192,856,33.19
358208,869,33.19
358224,867,32.55
358239,857,32.87
358255,844,32.23
358270,827,33.19
358286,810,32.87
358302,795,33.19
358317,771,32.55
358333,751,32.55
358348,738,32.87
358364,724,32.87
358380,718,32.87
358395,718,32.23
358411,718,32.55
358426,723,32.23
358441,727,33.19
358456,727,32.87
358471,728,33.19
358486,727,33.52
358502,733,32.87
358517,729,30.62
358532,725,33.19
358547,729,32.87
358562,726,32.87
358577,728,32.55
358592,722,33.19
358607,715,32.87
358622,712,33.52
358637,708,32.55
358653,708,33.19
358668,701,32.55
358683,711,31.90
358698,730,33.19
358713,756,33.19
358728,785,32.87
358743,814,32.23
358758,838,32.55
358773,853,32.87
358788,860,33.19
358803,857,31.58
358818,858,33.52
358833,849,32.23
358848,833,32.87
358863,817,32.87
358878,800,32.23
358893,781,33.52
358908,764,34.48
358923,747,33.19
358938,733,32.55
358953,722,32.55
358968,712,32.87
358983,709,32.55
358998,711,32.55
359013,713,32.55
359028,722,33.19
359043,722,33.52
359058,727,32.87
359073,731,31.90
359088,734,32.87
359103,732,33.19
359118,734,32.87
359133,728,32.23
359148,726,32.55
359163,722,32.87
359178,721,32.55
359193,720,32.23
359208,716,32.23
359223,713,32.23
359238,716,33.19
359253,704,32.55
359268,714,32.87
359283,725,32.87
359298,748,32.23
359313,776,33.52
359328,804,33.19
359343,831,32.55
359358,845,32.55
359373,859,32.23
359388,860,32.23
359403,860,32.55
359418,854,32.87
359433,834,33.19
359448,820,32.55
359463,814,32.55
359478,794,31.90
359493,780,33.19
359508,763,32.23
359523,745,32.55
359538,732,32.23
359554,719,33.19
359569,716,31.90
359584,712,32.87
359599,717,33.19
359614,721,32.87
359630,723,32.87
359645,728,32.23
359660,731,31.90
359675,738,32.55
359690,734,31.90
359705,733,32.87
359720,729,32.87
359736,726,32.55
359751,718,32.23
359766,717,32.55
359781,712,32.23
359796,711,31.90
359811,714,32.87
359827,712,32.23
359843,704,31.90
359859,708,32.87
359874,718,32.55
359889,731,32.87
359905,760,32.55
359921,788,33.19
359936,813,32.55
359952,832,32.87
359968,845,32.23
359983,852,33.19
359999,850,32.87
360014,844,31.90
360030,833,32.87
360046,822,32.55
360061,800,32.23
360077,787,32.87
360093,768,32.87
360109,749,32.55
360125,737,31.90
360141,729,32.55
360157,721,32.23
360173,724,31.90
360189,722,32.87
360205,724,32.87
360221,722,32.23
360237,725,32.87
360253,729,33.19
360269,731,33.19
360285,734,32.87
360300,727,32.55
360316,729,32.55
360332,733,33.52
360347,728,32.55
360363,724,31.90
360379,716,31.90
360395,715,33.19
360411,716,32.87
360427,716,32.87
360442,710,32.23
360458,715,32.23
360474,728,32.55
360490,748,31.90
360506,784,32.23
360522,803,33.19
360538,825,32.23
360553,840,32.55
360569,846,32.87
360584,848,32.23
360600,844,31.90
360616,833,32.55
360631,823,32.87
360647,804,33.19
360662,788,32.87
360678,770,32.55
360694,754,32.23
360709,745,32.55
360725,733,33.19
360740,726,32.23
360756,724,32.23
360772,723,33.19
360787,722,32.55
360803,725,32.87
360818,731,32.87
360834,726,33.19
360849,731,32.55
360864,734,32.55
360879,742,32.87
360894,735,32.87
360909,732,32.55
360924,728,32.23
360939,722,32.87
360954,718,31.58
360969,711,33.19
360984,712,33.19
360999,714,32.87
361015,712,32.55
361030,713,32.55
361045,718,32.87
361060,726,32.23
361075,745,31.26
361090,766,32.87
361105,792,33.52
361120,821,33.19
361135,834,32.87
361150,852,33.19
361165,859,32.87
361180,861,33.19
361196,855,33.52
361211,848,32.23
361226,834,32.87
361241,816,32.55
361256,800,32.87
361271,782,32.87
361286,763,32.87
361301,749,32.87
361316,733,32.87
361331,732,32.55
361346,723,32.23
361361,726,32.55
361376,735,32.87
361391,729,32.87
361406,735,32.87
361421,732,32.55
361436,737,32.87
361451,736,32.87
361466,741,32.23
361481,740,32.55
361496,738,32.55
361511,740,31.90
361526,734,32.87
361541,733,32.55
361556,730,32.55
361571,724,32.87
361586,720,31.90
361601,713,32.55
361616,712,32.87
361631,715,33.19
361646,717,31.90
361661,733,32.87
361676,750,32.55
361692,776,32.87
361707,808,32.55
361722,835,33.19
361737,860,32.87
361752,871,32.87
361767,882,32.87
361782,881,33.19
361797,869,33.19
361812,863,32.55
361827,848,32.87
361842,831,32.87
361857,812,32.55
361872,792,32.23
361887,773,32.23
361902,752,32.87
361917,740,31.90
361932,735,32.87
361947,731,31.90
361962,732,32.87
361977,729,31.90
361992,736,33.52
362007,738,32.23
362022,746,32.87
362037,742,32.55
362052,745,32.87
362067,741,32.23
362082,742,32.87
362098,739,32.23
362113,738,32.55
362128,736,32.87
362143,731,32.87
362158,729,33.19
362173,725,32.87
362189,726,33.84
362205,726,32.87
362220,722,32.87
362235,715,32.55
362250,717,32.55
362266,721,32.87
362281,737,32.87
362296,754,31.90
362311,787,33.19
362326,812,32.55
362341,837,32.87
362357,862,33.19
362373,867,32.55
362388,871,32.87
362404,866,33.19
362419,858,33.19
362434,849,32.87
362450,834,31.90
362465,819,32.55
362481,799,32.55
362497,785,33.19
362513,764,33.19
362529,760,32.55
362544,748,32.55
362560,741,33.19
362576,740,32.87
362592,742,34.48
362608,740,32.87
362624,744,32.23
362640,748,32.87
362656,749,31.90
362672,746,32.87
362688,750,33.19
362704,747,32.55
362720,742,33.19
362736,741,32.55
362751,737,32.55
362767,735,32.55
362782,730,32.23
362798,726,32.55
362814,725,32.23
362829,725,33.19
362845,722,32.23
362860,724,33.19
362876,727,32.87
362892,741,31.90
362907,760,32.23
362923,787,32.87
362938,811,33.19
362954,834,32.55
362970,850,33.19
362985,865,33.19
363001,863,33.19
363017,859,32.87
363032,852,32.23
363048,835,32.55
363063,824,32.87
363079,806,32.23
363094,789,31.90
363109,771,33.19
363125,759,32.87
363140,744,32.23
363156,734,33.19
363171,727,32.87
363187,728,32.87
363203,729,32.55
363218,728,31.58
363234,735,32.87
363249,735,32.55
363265,740,32.55
363281,742,32.87
363296,743,32.23
363312,740,32.87
363327,735,32.55
363342,738,33.19
363357,737,32.87
363372,729,32.87
363387,725,32.87
363403,720,32.55
363418,720,32.23
363433,721,31.90
363448,721,31.90
363463,724,29.97
363478,730,33.19
363493,744,32.55
363508,757,32.87
363523,784,31.90
363538,809,33.19
363553,834,33.52
363568,843,32.87
363583,852,32.87
363598,859,32.87
363613,857,32.87
363628,855,32.87
363643,842,32.55
363658,827,33.19
363673,811,32.23
363688,794,33.19
363703,778,32.55
363718,764,32.23
363733,752,32.87
363748,743,32.87
363763,737,31.90
363778,738,32.87
363793,737,32.23
363808,741,32.55
363823,741,33.19
363838,740,32.87
363853,737,32.23
363868,737,32.87
363883,736,33.52
363898,737,33.19
363913,741,32.55
363928,742,32.55
363943,738,32.87
363958,735,33.19
363973,733,31.90
363988,727,32.55
364003,720,32.23
364018,719,32.87
364033,719,32.87
364048,718,32.55
364063,718,31.90
364078,725,32.23
364093,738,33.19
364108,755,32.87
364123,777,32.87
364138,802,33.19
364153,830,32.87
364168,842,32.87
364183,855,32.87
364198,864,31.90
364213,865,32.87
364228,862,33.19
364243,850,32.55
364258,837,33.52
364273,821,31.58
364288,804,31.90
364303,789,32.87
364318,766,33.52
364333,753,33.52
364348,741,31.90
364363,737,33.52
364378,733,32.87
364393,734,32.55
364408,728,32.55
364423,727,32.55
364438,727,32.23
364453,729,32.23
364468,732,31.58
364483,732,32.87
364498,735,32.87
364513,739,33.19
364528,742,33.52
364543,735,33.19
364558,733,32.55
364573,726,32.23
364588,723,33.19
364603,722,32.55
364618,720,32.23
364633,720,32.23
364648,719,33.84
364663,716,33.19
364679,715,33.19
364694,727,32.87
364709,737,32.87
364724,753,32.55
364739,781,32.55
364754,802,32.23
364770,828,33.19
364785,844,32.87
364800,851,32.87
364815,857,33.19
364830,857,32.55
364845,851,31.90
364860,841,33.84
364875,825,32.87
364891,810,33.19
364906,790,32.87
364921,774,32.55
364936,760,33.19
364952,742,32.55
364968,731,32.55
364983,729,32.55
364999,728,32.23
365014,733,32.87
365030,730,32.87
365046,733,32.55
365061,733,32.23
365077,740,33.19
365093,740,32.87
365108,737,32.87
365124,740,32.55
365139,736,32.23
365155,731,32.55
365171,729,32.55
365186,728,32.55
365202,722,32.87
365218,723,32.87
365234,717,32.87
365250,713,32.23
365266,714,31.90
365282,714,33.19
365298,718,32.23
365314,732,33.19
365329,758,32.87
365345,775,32.87
365361,802,32.87
365377,827,32.87
365393,841,33.52
365409,850,32.55
365425,849,33.19
365441,842,32.55
365457,832,32.23
365472,818,32.87
365488,804,33.52
365504,780,32.87
365519,765,32.87
365535,754,32.23
365551,738,33.52
365566,731,32.23
365582,724,32.55
365597,721,33.19
365613,724,33.19
365629,729,32.23
365644,729,32.87
365660,732,32.55
365675,737,32.87
365691,737,32.87
365706,735,31.90
365721,736,33.19
365737,733,32.23
365752,737,32.23
365768,728,31.90
365783,721,32.23
365799,725,32.87
365814,720,31.90
365829,722,31.58
365844,719,31.90
365859,725,32.55
365874,717,32.23
365890,717,32.55
365906,726,32.87
365921,742,32.55
365937,769,32.87
365952,793,33.19
365967,818,32.87
365982,832,33.19
365997,850,32.87
366012,856,32.87
366028,855,32.87
366043,848,31.90
366058,836,31.90
366073,821,33.19
366088,807,32.87
366103,791,32.55
366118,775,32.55
366133,759,32.55
366148,745,31.90
366163,739,30.62
366178,731,33.19
366193,728,31.90
366209,733,32.87
366224,731,32.55
366239,732,32.55
366254,736,33.19
366269,735,33.19
366284,737,32.55
366299,739,32.87
366314,745,32.87
366329,743,32.23
366344,739,31.90
366359,732,32.23
366374,734,32.55
366389,734,32.55
366404,723,32.55
366419,723,32.87
366434,722,32.55
366449,720,32.55
366464,721,31.90
366479,721,32.23
366494,726,31.90
366509,739,31.58
366524,759,32.87
366539,783,32.87
366554,806,32.55
366569,826,33.52
366584,844,32.55
366599,857,31.58
366614,864,32.87
366629,859,32.23
366644,855,32.55
366659,843,32.87
366674,827,32.55
366689,813,32.87
366704,796,33.19
366719,778,32.87
366734,761,32.87
366749,750,32.87
366764,738,33.19
366779,731,29.97
366794,734,32.87
366809,730,32.87
366824,725,31.90
366839,732,32.87
366854,733,32.87
366869,738,32.87
366884,739,32.55
366899,742,32.87
366914,742,31.90
366929,747,33.19
366944,746,32.87
366959,742,31.90
366974,737,33.19
366989,732,32.87
367004,729,32.55
367019,730,33.19
367034,722,32.87
367049,721,32.55
367064,720,32.55
367079,721,33.19
367094,726,32.55
367109,741,32.55
367124,756,32.87
367139,783,32.87
367154,810,33.52
367169,838,33.19
367184,850,32.55
367199,863,32.55
367214,861,33.19
367229,861,32.23
367244,859,33.19
367259,840,32.87
367274,831,32.55
367289,813,32.87
367304,793,33.19
367319,775,32.87
367334,761,32.87
367349,749,32.87
367364,741,32.23
367379,734,31.90
367394,738,32.55
367409,734,32.87
367424,733,32.23
367439,736,33.19
367454,739,32.87
367469,739,33.19
367484,745,32.87
367499,742,32.87
367514,746,32.23
367529,746,32.87
367544,743,32.55
367559,738,32.55
367574,733,32.55
367589,732,32.55
367604,730,32.87
367619,722,32.55
367634,721,32.55
367649,721,32.55
367664,719,32.55
367679,721,32.87
367694,730,32.87
367709,749,32.87
367724,772,33.84
367739,797,32.87
367754,822,32.87
367769,841,32.55
367784,857,32.87
367799,864,32.55
367814,864,32.55
367829,857,32.55
367844,847,33.19
367859,829,32.55
367874,814,33.19
367889,791,32.55
367904,772,33.19
367919,756,32.23
367934,738,31.90
367949,735,32.23
367964,731,32.87
367979,732,31.90
367994,735,32.87
368009,736,32.87
368024,737,32.87
368039,737,33.19
368054,741,33.19
368069,742,31.90
368084,744,31.58
368099,745,33.19
368114,740,33.52
368129,741,32.55
368144,735,32.87
368159,734,32.55
368174,728,33.19
368189,725,32.87
368204,732,32.55
368219,715,32.55
368234,710,32.55
368249,711,32.55
368264,708,32.23
368279,715,31.90
368294,731,32.87
368309,759,32.55
368324,788,32.23
368339,820,32.87
368354,844,33.52
368369,864,33.19
368384,881,32.87
368399,882,32.55
368414,877,32.23
368429,869,32.87
368444,851,31.90
368459,834,33.19
368474,814,32.87
368489,797,32.87
368504,776,32.87
368519,761,32.55
368534,746,32.23
368549,737,31.90
368564,731,32.23
368579,734,32.87
368594,736,32.87
368609,736,32.87
368624,738,32.55
368639,739,32.87
368654,743,32.87
368669,743,32.87
368684,742,32.55
368699,743,33.52
368714,744,32.55
368729,747,32.55
368744,741,33.52
368759,738,32.87
368774,732,32.55
368789,724,33.52
368804,722,32.55
368819,716,32.55
368834,717,33.19
368849,718,31.90
368864,726,32.55
368879,740,32.23
368894,763,32.87
368909,792,32.55
368924,821,33.52
368939,846,32.55
368954,866,32.23
368969,879,33.52
368984,883,33.52
368999,881,32.23
369014,878,32.87
369029,869,32.87
369044,846,31.90
369059,827,31.90
369074,809,32.87
369089,787,32.55
369104,771,32.87
369119,757,32.87
369134,740,32.23
369149,735,32.55
369164,734,32.87
369179,732,32.23
369194,734,32.87
369209,734,32.87
369224,736,32.55
369239,736,31.90
369254,737,33.19
369269,742,33.19
369284,742,32.87
369299,737,32.87
369314,738,32.87
369329,737,32.87
369344,735,32.55
369359,733,32.55
369374,727,32.87
369389,724,32.55
369404,724,32.87
369419,719,32.23
369434,722,33.19
369449,722,32.23
369464,727,32.55
369479,750,33.19
369494,774,33.19
369509,802,32.23
369524,829,33.19
369539,856,32.87
369554,872,33.52
369569,877,32.55
369584,878,33.19
369599,870,32.55
369614,862,33.19
369629,844,32.55
369644,835,32.87
369659,809,32.87
369674,787,33.52
369689,769,32.23
369704,754,32.87
369719,742,32.55
369734,731,31.58
369749,734,32.87
369764,734,33.19
369779,731,32.55
369794,744,32.87
369809,738,32.55
369824,741,32.23
369839,741,31.90
369854,739,33.19
369869,738,32.55
369884,737,33.19
369899,738,32.23
369914,741,32.23
369929,734,32.87
369944,736,32.87
369959,730,31.90
369974,721,33.19
369989,716,32.23
370004,712,32.87
370019,711,32.87
370034,713,33.19
370049,718,32.23
370064,735,32.87
370079,764,32.23
370094,792,32.87
370109,822,32.87
370124,844,32.23
370139,863,32.55
370154,868,31.58
370169,871,33.52
370184,866,33.19
370199,858,33.52
370214,842,31.58
370229,828,32.55
370244,807,32.87
370259,785,33.19
370274,766,32.23
370289,747,32.87
370304,734,32.55
370319,722,32.55
370334,716,32.23
370349,716,32.55
370364,721,33.19
370379,727,32.87
370394,729,33.19
370409,732,33.19
370424,734,32.87
370439,738,32.87
370454,734,32.55
370469,736,31.90
370484,732,32.87
370499,735,33.19
370514,727,33.19
370529,728,32.55
370544,726,32.55
370559,727,32.87
370574,724,33.19
370589,714,33.19
370604,710,32.87
370619,714,32.87
370634,719,31.90
370649,724,31.90
370664,758,33.19
370679,783,32.87
370694,817,32.87
370709,844,32.87
370724,862,32.87
370739,871,33.52
370754,874,33.19
370769,868,33.19
370784,860,33.19
370799,847,32.55
370814,837,32.55
370829,816,33.19
370844,800,31.90
370859,780,33.19
370874,761,32.87
370889,742,34.80
370904,731,32.55
370919,732,34.16
370934,725,32.87
370949,726,32.87
370964,734,31.90
370979,731,32.55
370994,735,32.87
371009,734,32.87
371024,736,33.19
371039,740,32.23
371054,735,32.55
371069,733,33.19
371084,732,32.23
371099,730,32.55
371114,732,32.87
371129,728,32.23
371144,727,32.87
371159,721,32.87
371174,716,31.90
371189,713,32.87
371204,709,32.55
371219,719,32.87
371234,727,32.55
371249,746,33.19
371264,777,33.19
371279,806,32.87
371294,837,32.87
371309,859,32.87
371324,876,32.23
371339,880,32.87
371354,877,32.55
371369,872,32.55
371384,860,32.87
371399,845,32.55
371414,828,33.19
371429,807,33.19
371444,794,32.55
371459,771,34.16
371474,752,32.87
371489,736,32.55
371504,727,32.87
371519,723,32.87
371534,723,33.52
371549,727,32.87
371564,731,32.87
371579,734,32.87
371594,736,32.55
371609,744,32.87
371624,739,33.19
371639,737,32.55
371654,736,31.90
371669,730,32.87
371684,728,32.55
371699,729,33.19
371714,727,32.55
371729,725,31.90
371744,718,32.55
371759,719,32.87
371774,713,32.87
371789,705,33.19
371804,708,32.23
371819,718,33.52
371834,735,32.23
371849,762,32.87
371864,798,32.23
371879,827,32.87
371894,851,32.23
371909,862,33.52
371924,873,33.19
371939,870,32.23
371954,862,33.19
371969,853,32.55
371984,839,32.55
371999,826,33.19
372014,806,32.55
372029,786,32.87
372044,767,32.87
372059,751,32.87
372074,735,32.55
372089,725,32.23
372104,722,31.90
372119,722,33.19
372134,726,32.55
372149,729,32.23
372164,736,33.19
372179,738,33.19
372194,738,32.55
372209,743,32.23
372224,736,32.87
372239,736,32.23
372254,731,32.87
372269,729,32.55
372284,729,33.52
372299,725,32.87
372314,724,32.55
372329,719,32.23
372344,715,33.19
372359,715,33.19
372374,712,32.87
372389,719,32.87
372404,728,33.19
372419,751,32.23
372434,784,32.23
372449,813,32.55
372464,841,32.87
372479,861,32.87
372494,869,33.19
372509,870,33.52
372524,865,32.87
372539,854,32.87
372554,840,32.87
372569,826,32.55
372584,804,33.19
372599,787,32.87
372614,769,32.87
372629,754,32.55
372644,742,32.87
372659,732,33.19
372674,724,33.19
372689,719,32.55
372704,717,32.23
372719,720,32.87
372734,725,32.87
372749,737,32.87
372764,732,33.19
372779,733,32.87
372794,737,32.87
372809,736,32.87
372824,733,32.87
372839,730,32.87
372854,723,33.19
372869,721,31.90
372884,721,31.90
372899,723,32.87
372914,721,32.55
372929,717,32.87
372944,718,32.23
372959,716,32.55
372974,721,32.87
372989,735,32.55
373004,758,32.87
373019,785,33.19
373034,820,32.55
373049,850,32.55
373064,870,33.52
373079,880,32.23
373094,878,32.23
373109,876,32.87
373124,861,32.87
373139,846,33.52
373154,826,32.87
373169,813,32.87
373184,793,32.87
373199,779,32.23
373214,763,32.55
373229,749,31.90
373244,737,32.55
373259,729,32.87
373274,722,32.23
373289,723,32.87
373304,724,32.23
373319,724,32.23
373334,730,32.87
373349,733,32.55
373364,735,32.87
373379,737,32.87
373394,737,33.19
373409,730,33.19
373424,728,32.87
373439,729,32.55
373454,721,32.55
373469,718,33.19
373484,717,33.19
373499,715,32.55
373514,714,32.87
373529,718,32.55
373544,713,32.23
373559,714,32.23
373574,725,32.87
373589,754,32.87
373604,775,32.87
373619,810,32.87
373634,838,32.55
373649,860,32.55
373664,879,32.87
373679,882,33.19
373694,883,32.87
373709,873,32.55
373724,856,33.19
373739,841,33.52
373754,820,32.23
373769,801,31.90
373784,780,32.55
373799,765,32.87
373814,750,32.87
373829,738,32.55
373844,729,31.90
373859,725,32.55
373874,724,32.55
373889,725,32.87
373904,728,32.23
373919,732,33.19
373934,733,32.87
373949,735,31.58
373964,738,33.19
373979,737,32.87
373994,737,32.87
374009,729,33.19
374024,724,32.87
374039,725,32.87
374054,722,32.87
374069,715,33.19
374084,714,32.87
374099,715,32.87
374114,714,32.87
374129,715,32.87
374144,712,33.19
374159,712,33.52
374174,736,32.87
374189,762,32.55
374204,793,33.19
374219,821,32.87
374234,848,32.55
374249,867,33.19
374264,879,33.52
374279,876,33.52
374294,862,33.19
374309,849,31.90
374324,832,32.23
374339,814,32.55
374354,794,33.19
374369,774,32.23
374384,756,33.19
374399,745,32.87
374414,735,32.87
374429,725,32.23
374444,722,32.87
374459,721,33.19
374474,715,32.87
374489,716,32.87
374504,721,32.55
374519,728,32.23
374534,730,32.55
374549,734,32.55
374564,737,33.19
374579,734,31.90
374594,731,33.19
374609,730,32.55
374624,722,32.23
374639,719,32.55
374654,715,32.87
374669,707,32.87
374684,713,32.87
374699,711,32.55
374714,710,33.19
374729,715,32.87
374744,721,32.55
374759,734,33.19
374774,759,32.23
374789,788,32.87
374804,814,32.87
374819,841,32.23
374834,860,32.23
374849,876,32.87
374864,874,32.23
374879,867,32.23
374894,857,32.55
374909,839,33.19
374924,820,33.19
374939,800,32.55
374954,783,32.87
374969,764,32.87
374984,749,33.52
374999,735,32.55
375014,726,31.90
375029,720,32.55
375044,720,32.23
375059,721,32.55
375074,721,32.87
375089,725,32.87
375104,728,32.23
375119,736,32.55
375134,733,32.23
375149,734,32.55
375164,734,33.19
375179,734,32.23
375194,731,32.23
375209,725,32.23
375224,720,32.55
375239,722,32.55
375254,707,33.19
375269,711,32.87
375284,710,32.55
375299,708,33.19
375314,716,32.55
375329,714,32.23
375344,726,32.23
375360,752,32.87
375375,777,32.55
375390,808,31.90
375405,835,32.55
375420,857,32.87
375435,873,32.87
375450,879,33.19
375465,875,33.19
375481,867,33.19
375496,853,33.19
375511,838,33.19
375526,816,33.52
375541,799,32.55
375556,779,33.19
375572,757,32.55
375587,743,32.87
375603,729,32.87
375619,721,33.19
375634,720,32.87
375650,718,33.19
375666,721,33.19
375681,724,33.19
375697,731,32.87
375712,732,33.19
375728,731,33.19
375744,732,32.87
375759,728,32.23
375775,726,32.23
375791,723,32.87
375806,719,33.19
375822,714,32.23
375837,707,32.87
375853,705,31.58
375869,705,32.87
375884,705,32.87
375900,711,32.23
375916,710,32.23
375931,718,33.19
375947,738,32.87
375962,754,32.23
375978,786,32.87
375994,819,32.87
376010,844,32.87
376026,861,32.87
376042,868,32.87
376058,865,32.87
376074,857,33.19
376090,844,32.87
376106,829,33.19
376122,810,32.55
376138,794,32.23
376154,776,32.23
376170,757,32.87
376186,740,32.55
376202,731,32.55
376218,722,33.19
376234,720,34.48
376250,717,31.90
376266,724,31.90
376282,729,32.55
376298,733,32.23
376314,736,33.19
376329,738,32.87
376345,736,32.55
376361,737,32.87
376377,733,32.55
376393,727,32.87
376409,725,32.87
376424,720,32.87
376440,716,33.19
376456,711,33.52
376471,710,31.58
376487,704,32.55
376502,705,33.19
376518,706,32.87
376534,712,32.87
376549,722,33.19
376565,745,32.55
376580,770,33.19
376596,805,33.52
376612,832,32.55
376627,853,32.87
376643,864,32.87
376658,862,33.19
376674,855,32.23
376690,845,32.23
376705,835,32.87
376721,812,32.23
376736,797,33.19
376752,776,32.55
376768,756,32.55
376783,741,32.23
376799,729,32.87
376814,726,33.19
376829,724,32.87
376844,719,32.87
376859,719,32.87
376874,713,32.23
376890,723,32.87
376905,725,32.55
376920,731,32.87
376935,736,32.55
376950,740,32.55
376965,739,33.19
376980,733,32.87
376995,728,31.90
377010,720,32.55
377025,719,32.55
377040,712,31.90
377055,706,31.58
377070,707,32.23
377085,706,32.87
377100,708,32.87
377115,707,31.90
377130,709,31.58
377145,719,32.55
377160,737,32.23
377175,765,32.87
377190,787,32.55
377205,812,32.23
377220,833,32.55
377235,850,33.19
377250,860,32.87
377265,860,32.87
377280,854,33.19
377295,840,32.55
377310,825,32.55
377325,807,32.87
377340,789,32.55
377355,770,32.87
377370,757,32.87
377385,739,32.87
377400,729,33.52
377415,724,32.87
377430,727,32.87
377445,721,32.87
377460,724,32.87
377475,722,32.87
377490,726,32.23
377505,729,32.87
377520,728,32.55
377535,734,32.87
377550,733,33.19
377565,734,32.23
377580,734,33.19
377595,731,33.19
377610,725,32.23
377625,726,32.55
377640,720,32.55
377655,721,32.87
377670,719,32.23
377685,714,33.19
377700,712,32.55
377715,713,32.55
377730,712,32.87
377745,718,32.23
377760,732,32.87
377775,761,32.87
377791,789,32.23
377806,817,32.87
377821,842,32.87
377836,858,32.55
377851,864,32.87
377866,866,32.55
377881,865,32.55
377896,853,32.87
377912,837,33.52
377927,826,33.19
377942,806,32.87
377957,784,32.23
377972,764,32.87
377987,750,31.90
378003,738,32.55
378018,729,32.55
378033,724,32.87
378048,726,32.87
378063,729,32.87
378078,727,31.90
378094,732,32.87
378110,735,31.90
378125,730,32.87
378141,731,33.52
378156,731,33.19
378172,733,33.52
378188,731,32.87
378203,729,32.55
378219,726,32.87
378235,726,32.23
378250,723,33.19
378266,722,32.87
378281,720,32.23
378297,718,32.23
378313,717,33.52
378328,711,33.52
378344,713,32.87
378360,724,32.55
378375,741,31.90
378391,769,33.19
378406,794,32.55
378422,823,32.87
378438,842,31.90
378454,866,33.19
378470,868,33.19
378486,859,32.23
378501,856,30.62
378517,847,31.90
378533,834,32.55
378549,814,32.23
378565,798,32.87
378581,769,33.19
378596,768,33.19
378612,746,32.87
378628,739,32.55
378644,733,32.87
378660,727,32.55
378676,725,31.90
378691,730,33.52
378707,732,32.87
378723,731,31.90
378739,730,32.87
378755,734,32.55
378771,736,33.19
378787,733,31.90
378803,734,32.23
378819,734,32.55
378834,731,32.23
378850,727,32.87
378866,726,32.55
378881,726,33.19
378897,722,33.19
378912,721,33.19
378928,714,33.19
378944,713,32.87
378959,719,32.87
378975,730,32.23
378991,752,32.55
379006,778,32.87
379022,810,33.52
379037,829,32.55
379053,846,32.87
379068,858,33.52
379084,857,32.55
379100,853,32.87
379115,847,33.19
379131,833,32.55
379146,820,33.19
379161,800,32.87
379176,780,32.55
379191,763,31.90
379207,745,33.19
379222,734,31.90
379237,729,33.19
379252,723,33.19
379267,722,32.55
379282,724,33.19
379297,725,32.55
379312,733,32.23
379327,733,32.55
379342,735,31.90
379357,735,31.90
379372,738,32.87
379387,734,32.87
379403,732,33.19
379418,732,32.87
379433,731,32.87
379448,730,32.87
379463,727,33.19
379478,721,32.23
379493,719,32.87
379508,719,32.87
379523,713,32.55
379538,711,33.52
379553,713,32.23
379568,719,32.55
379583,743,32.87
379598,769,32.87
379613,797,31.90
379628,824,33.52
379643,843,32.87
379658,858,32.55
379673,864,32.55
379688,865,32.87
379703,861,33.52
379718,849,33.19
379733,842,32.87
379748,820,32.87
379763,809,33.19
379778,789,32.23
379793,768,33.52
379808,751,33.19
379823,730,32.23
379838,731,33.19
379853,723,32.87
379868,726,31.90
379883,732,32.55
379898,732,33.52
379913,736,32.55
379928,739,33.19
379943,738,32.55
379958,740,32.87
379973,738,32.55
379988,738,32.55
380003,735,33.19
380018,735,32.55
380033,733,31.90
380048,729,33.19
380063,729,32.87
380078,724,32.87
380093,722,32.55
380108,721,32.87
380123,717,32.87
380138,717,31.90
380153,713,31.90
380168,717,32.55
380183,731,32.23
380198,753,31.90
380213,782,32.87
380228,807,32.55
380243,834,33.19
380258,855,32.87
380274,862,32.55
380289,875,33.19
380304,880,33.19
380319,867,32.87
380334,858,32.23
380349,843,32.55
380365,826,32.23
380380,810,32.23
380395,792,32.55
380410,774,32.87
380425,758,33.19
380440,747,32.87
380456,737,32.23
380472,732,32.23
380487,733,32.55
380503,734,32.87
380518,736,32.23
380533,739,32.23
380548,743,32.23
380564,746,33.52
380580,746,33.52
380595,741,33.52
380611,738,32.55
380626,736,32.87
380642,733,32.23
380658,728,32.23
380673,728,31.90
380689,724,32.55
380705,722,32.55
380721,718,32.87
380737,721,32.55
380753,719,32.87
380768,717,32.87
380784,719,32.87
380800,733,32.87
380816,749,32.87
380832,777,32.87
380848,806,34.48
380864,837,32.87
380880,859,33.52
380896,876,33.19
380912,878,32.55
380928,874,32.87
380944,864,32.87
380960,852,33.19
380976,836,31.90
380992,815,32.87
381008,796,33.52
381024,777,32.55
381040,756,32.87
381056,745,32.87
381072,730,33.19
381088,725,31.90
381104,726,31.90
381120,726,32.87
381136,735,32.55
381152,737,33.19
381168,742,32.87
381184,744,32.55
381200,748,32.87
381216,753,32.87
381232,748,33.19
381247,747,31.58
381263,740,32.55
381279,733,33.19
381295,734,33.19
381311,728,32.55
381327,728,32.87
381342,724,33.19
381358,722,32.87
381373,718,32.87
381389,718,32.87
381405,720,31.90
381420,733,32.55
381436,755,33.19
381451,787,33.52
381467,820,32.87
381483,846,32.23
381498,866,33.52
381514,874,31.90
381529,875,33.19
381545,867,32.23
381561,856,32.87
381576,837,33.52
381592,821,32.87
381608,803,32.87
381623,777,32.55
381639,760,32.55
381654,745,33.19
381670,728,32.55
381686,725,31.90
381701,724,32.55
381717,726,32.87
381732,730,32.87
381747,734,32.55
381762,739,32.87
381778,740,32.87
381793,739,32.87
381808,739,33.19
381823,742,32.55
381838,740,32.87
381853,738,33.19
381868,735,33.19
381883,732,33.19
381898,730,32.55
381913,722,32.55
381928,721,33.19
381943,716,32.87
381959,714,32.55
381974,710,32.55
381989,711,32.87
382004,715,32.87
382019,719,33.52
382034,740,33.19
382049,763,33.19
382064,798,33.52
382079,823,32.87
382094,847,31.90
382109,865,32.23
382124,874,32.55
382139,876,33.19
382154,877,33.52
382169,865,32.55
382184,853,32.87
382199,836,33.52
382214,818,32.55
382229,800,33.19
382244,775,31.90
382259,760,32.87
382274,747,32.87
382289,731,32.55
382304,731,32.87
382319,723,31.90
382334,725,32.23
382349,729,32.55
382364,733,31.90
382379,740,32.55
382394,737,31.90
382409,741,32.55
382424,742,33.52
382439,743,32.87
382454,740,33.19
382469,737,32.87
382484,735,31.90
382499,731,31.90
382514,722,32.55
382529,721,33.19
382544,717,33.52
382559,713,32.87
382574,711,32.87
382589,708,32.23
382604,709,32.23
382619,711,32.55
382634,718,31.90
382649,732,33.19
382664,753,32.23
382679,783,31.90
382694,813,32.55
382709,838,32.55
382724,862,32.23
382739,879,33.52
382754,885,32.23
382769,884,33.52
382784,879,32.87
382799,863,32.55
382814,847,32.87
382829,826,32.23
382844,807,32.23
382859,788,33.19
382874,770,31.90
382889,758,32.55
382904,745,32.55
382919,734,32.23
382934,733,32.87
382949,728,32.87
382964,728,32.87
382979,730,33.19
382994,731,32.87
383009,737,32.55
383024,736,31.90
383039,737,32.87
383054,740,31.90
383069,743,33.19
383084,742,32.23
383099,736,32.87
383114,736,32.23
383129,735,33.19
383144,727,33.52
383159,723,31.90
383174,720,34.80
383189,717,32.55
383204,716,31.90
383219,717,32.87
383234,715,30.29
383249,716,32.23
383264,724,32.55
383279,741,32.23
383294,766,33.19
383309,800,31.90
383324,828,32.23
383339,854,31.90
383354,871,32.23
383369,884,31.26
383384,884,32.23
383399,880,33.52
383414,868,31.26
383429,851,32.55
383444,831,33.19
383459,811,31.90
383474,791,33.19
383489,772,32.87
383504,753,32.87
383519,740,33.52
383534,735,32.87
383549,731,32.23
383564,726,31.90
383579,724,31.90
383594,728,32.23
383609,731,33.19
383624,733,32.23
383639,739,33.19
383654,743,31.90
383669,747,33.19
383684,748,33.19
383699,746,32.55
383714,739,32.87
383729,731,32.23
383744,725,32.87
383759,721,32.87
383774,721,32.87
383789,717,32.55
383804,720,33.19
383819,714,32.23
383834,711,32.87
383849,713,32.55
383864,715,32.87
383879,720,32.55
383894,736,32.23
383909,768,32.23
383924,793,33.52
383939,822,32.55
383954,851,32.23
383969,868,32.23
383984,882,32.55
383999,884,32.87
384014,875,33.19
384029,858,32.87
384044,838,33.52
384059,820,33.52
384074,803,32.23
384089,783,32.87
384104,764,32.87
384119,748,32.23
384135,736,32.55
384150,728,31.58
384165,725,32.23
384180,722,32.23
384195,722,34.48
384210,724,34.16
384226,727,32.23
384241,732,32.87
384256,738,32.55
384271,738,32.55
384286,740,33.19
384301,742,32.87
384316,741,33.19
384331,736,33.19
384346,734,33.19
384361,723,32.87
384376,718,32.87
384391,718,32.23
384406,717,32.55
384421,711,32.87
384436,714,32.87
384451,712,32.55
384466,713,33.19
384481,718,33.19
384496,719,31.58
384511,735,33.52
384526,760,32.55
384541,789,33.19
384556,830,32.55
384571,853,33.52
384586,874,33.19
384601,893,33.19
384616,890,32.23
384631,885,32.87
384646,871,32.87
384661,859,32.55
384676,841,33.19
384691,823,33.19
384706,803,32.23
384721,784,32.87
384736,768,32.55
384751,754,32.87
384766,737,32.55
384781,730,32.87
384796,726,32.23
384811,721,32.87
384826,724,32.23
384841,730,32.87
384856,732,32.23
384871,741,32.87
384886,740,32.55
384901,746,33.19
384916,742,32.87
384931,737,32.55
384946,736,29.97
384961,731,32.55
384976,725,33.52
384991,721,32.87
385006,716,33.19
385021,715,32.55
385036,714,32.23
385051,713,31.90
385066,708,32.87
385081,710,32.87
385096,709,32.87
385111,708,32.87
385126,716,32.87
385141,731,31.90
385156,759,32.87
385171,795,32.87
385186,832,32.87
385201,862,33.52
385216,882,32.23
385231,892,32.55
385246,897,32.87
385261,885,33.19
385276,873,33.19
385291,858,32.23
385306,847,32.87
385321,828,33.19
385336,808,32.87
385351,786,33.19
385366,768,33.52
385381,751,32.55
385396,736,32.87
385411,729,32.55
385426,722,32.55
385441,721,32.55
385456,722,33.19
385471,724,31.90
385486,729,32.55
385501,733,32.55
385516,736,32.55
385531,740,32.87
385546,738,32.55
385561,737,33.19
385576,735,33.19
385591,732,32.55
385606,727,32.87
385621,723,31.90
385636,722,31.90
385651,721,32.87
385666,716,31.90
385681,715,32.87
385696,713,32.23
385711,711,33.19
385726,711,32.87
385741,715,32.87
385756,710,31.90
385771,721,32.55
385786,746,33.19
385801,777,33.19
385816,810,33.19
385831,844,32.87
385846,869,32.23
385861,882,31.90
385876,889,33.19
385891,885,32.87
385906,877,32.55
385921,866,32.87
385936,848,33.19
385951,832,32.55
385966,812,32.87
385981,791,33.19
385996,768,33.19
386011,749,32.87
386026,737,33.19
386041,726,32.87
386056,722,33.52
386071,721,33.19
386086,722,32.87
386101,729,32.55
386116,734,32.55
386131,739,33.19
386146,738,33.19
386161,738,31.90
386176,735,32.55
386191,733,32.87
386206,734,32.87
386222,730,32.55
386237,726,33.19
386252,724,32.87
386267,723,33.52
386282,720,32.87
386297,714,32.23
386313,712,33.19
386328,713,32.87
386343,707,32.87
386358,706,32.23
386373,704,33.84
386388,718,31.90
386404,742,33.19
386419,765,33.19
386434,798,33.19
386449,832,32.87
386464,856,31.90
386479,875,32.87
386495,884,32.55
386511,882,31.58
386526,870,32.23
386542,854,33.19
386557,841,32.87
386573,819,32.87
386589,799,32.87
386604,773,33.19
386620,757,32.55
386636,737,32.55
386651,727,32.55
386667,717,32.87
386682,714,32.55
386698,719,32.87
386714,721,32.55
386730,722,32.87
386746,725,33.19
386762,730,32.55
386778,734,31.90
386793,731,32.55
386809,730,32.87
386824,729,32.23
386840,729,32.23
386856,728,33.19
386872,724,32.87
386888,717,33.19
386904,719,32.23
386920,715,32.23
386936,715,32.23
386952,714,33.19
386968,714,32.87
386984,708,33.19
387000,715,32.55
387016,724,32.55
387032,749,32.55
387048,785,32.87
387064,816,32.87
387080,854,32.55
387096,874,33.19
387112,893,33.19
387128,895,33.19
387144,885,32.55
387160,874,32.55
387176,859,32.87
387191,834,32.87
387207,814,32.87
387222,797,32.87
387238,774,32.87
387254,756,33.19
387269,744,31.90
387285,734,32.87
387300,724,32.87
387316,720,32.87
387332,719,32.23
387347,719,32.87
387363,722,31.90
387378,726,32.87
387394,730,31.90
387410,731,32.87
387425,734,32.55
387441,734,32.55
387457,733,33.19
387472,732,32.23
387488,729,32.55
387503,724,32.87
387519,724,32.87
387535,719,32.87
387550,719,32.55
387566,713,32.87
387581,715,32.55
387596,712,32.87
387611,712,31.58
387627,712,34.48
387643,720,33.19
387658,741,32.23
387674,775,32.55
387689,809,32.55
387704,842,33.19
387719,872,32.23
387734,889,32.23
387749,899,32.87
387765,898,33.19
387780,886,32.23
387795,872,32.55
387810,855,33.52
387825,831,32.87
387840,810,32.23
387855,791,32.55
387870,774,32.55
387885,752,33.19
387900,742,32.23
387915,732,33.19
387930,721,32.87
387945,720,33.52
387960,719,32.55
387975,725,31.90
387990,727,32.87
388005,733,32.87
388020,738,32.55
388035,738,32.87
388050,737,33.19
388065,734,32.87
388080,738,33.52
388095,729,31.90
388110,725,32.87
388125,720,33.19
388140,720,31.90
388155,717,33.19
388170,717,32.55
388185,716,32.87
388200,712,31.90
388215,710,32.55
388230,707,33.19
388245,707,32.23
388260,713,32.87
388275,728,33.19
388290,758,31.90
388305,795,32.23
388320,827,33.19
388335,857,32.23
388350,874,33.19
388365,881,32.55
388380,884,33.19
388395,874,32.23
388410,854,33.19
388425,841,32.23
388440,822,31.26
388455,802,32.55
388470,781,32.87
388485,761,33.19
388500,740,32.87
388515,729,33.52
388530,724,32.55
388545,712,32.87
388560,713,32.87
388575,717,32.87
388590,721,32.55
388605,727,32.87
388620,736,32.87
388635,738,32.55
388650,738,32.23
388666,741,32.55
388681,745,32.87
388696,741,32.87
388711,732,33.19
388726,727,33.19
388741,722,32.55
388757,715,32.87
388772,718,32.55
388787,719,33.52
388802,716,33.19
388817,713,32.87
388832,709,32.55
388848,713,32.87
388863,719,32.55
388878,732,32.55
388893,757,33.84
388908,786,32.87
388923,818,32.87
388939,846,32.23
388955,869,33.19
388970,878,33.52
388986,883,32.55
389001,878,33.52
389016,866,32.55
389031,851,32.23
389047,832,32.87
389063,810,32.55
389078,787,33.19
389094,763,32.87
389110,746,32.87
389125,731,32.55
389141,722,32.23
389156,719,32.55
389172,721,32.87
389188,720,32.87
389204,726,32.87
389220,731,33.19
389236,738,32.55
389252,739,32.23
389267,739,33.19
389283,742,32.55
389299,736,32.23
389315,733,33.19
389331,732,33.19
389347,723,32.55
389363,719,32.87
389379,717,32.87
389395,712,32.55
389411,710,32.23
389427,709,32.23
389443,700,31.90
389459,702,32.87
389475,712,32.87
389491,726,32.87
389506,760,33.19
389522,792,33.19
389538,826,31.90
389553,857,33.19
389569,872,33.52
389584,888,32.55
389600,890,32.55
389616,881,32.55
389632,867,33.19
389648,849,32.23
389664,831,32.87
389679,813,33.52
389695,787,33.19
389711,768,32.87
389726,749,33.52
389742,735,33.19
389758,726,32.87
389773,720,32.55
389789,719,32.87
389805,721,32.87
389821,727,32.87
389836,727,31.90
389851,731,32.55
389867,734,33.19
389882,733,32.87
389898,739,33.19
389914,736,32.55
389929,733,32.55
389945,727,32.87
389960,724,32.87
389976,720,32.55
389992,714,33.19
390007,717,32.87
390023,715,33.52
390038,710,32.55
390053,719,33.19
390068,716,32.55
390084,718,32.55
390100,733,32.23
390115,754,32.55
390131,783,33.19
390146,817,33.19
390161,838,32.87
390176,858,33.52
390191,873,32.55
390206,878,32.87
390221,875,33.52
390236,865,32.23
390251,851,33.19
390266,834,33.52
390282,815,32.87
390297,791,32.55
390312,771,32.55
390327,754,32.87
390342,739,34.48
390357,726,32.23
390372,725,33.19
390387,723,32.23
390402,721,33.52
390417,727,32.55
390433,741,32.23
390448,734,32.23
390463,736,31.90
390478,735,31.90
390493,741,32.55
390508,737,32.87
390523,738,32.55
390538,734,32.55
390553,735,32.23
390568,730,32.55
390583,722,32.23
390598,721,32.87
390613,714,32.55
390628,711,31.26
390643,712,32.87
390658,712,32.87
390673,708,31.90
390688,718,32.87
390703,735,33.19
390718,756,32.87
390733,791,33.52
390748,822,32.87
390763,843,33.19
390778,864,33.52
390793,873,32.55
390808,877,33.19
390823,869,32.87
390838,860,32.23
390853,848,32.87
390868,828,32.87
390883,808,32.87
390898,787,32.55
390913,768,32.23
390928,748,32.87
390943,732,32.87
390958,724,32.87
390973,718,32.87
390988,719,32.23
391003,721,31.58
391018,725,32.23
391033,727,32.87
391048,730,33.19
391063,730,32.87
391078,731,32.55
391093,732,33.19
391108,732,33.19
391123,734,32.55
391138,731,32.55
391153,730,32.87
391168,723,33.52
391183,720,32.55
391198,717,32.87
391213,713,32.55
391228,719,32.87
391243,709,32.55
391258,710,33.19
391274,715,32.23
391289,728,32.55
391304,749,32.55
391319,778,32.87
391334,809,32.55
391349,840,33.19
391364,853,33.19
391379,875,33.52
391394,883,32.87
391409,882,33.19
391425,878,32.23
391440,871,32.23
391456,853,32.23
391472,833,33.19
391487,816,32.23
391503,795,32.55
391518,774,32.87
391533,754,32.87
391548,745,33.19
391563,728,31.90
391578,721,32.55
391594,722,32.23
391610,724,32.23
391625,730,32.87
391641,732,32.87
391656,733,31.90
391672,737,33.19
391688,738,32.23
391703,743,33.52
391719,735,32.23
391735,733,32.55
391751,729,32.55
391767,724,33.19
391783,721,32.23
391799,715,32.87
391815,713,31.90
391831,709,31.90
391846,708,32.23
391862,704,32.87
391878,708,32.55
391894,726,32.87
391910,749,32.87
391926,780,32.23
391941,814,32.87
391957,843,34.48
391973,870,31.90
391989,882,33.19
392005,885,33.52
392021,884,32.23
392036,873,32.87
392052,857,32.87
392068,838,31.90
392084,816,32.87
392100,797,32.87
392116,779,33.84
392131,753,32.55
392147,731,33.19
392162,727,32.87
392178,723,32.55
392194,717,32.23
392209,720,33.19
392225,724,32.87
392240,726,31.90
392256,737,32.55
392272,735,32.55
392287,737,31.90
392303,740,32.55
392318,737,33.19
392334,730,32.23
392350,728,33.19
392365,720,32.55
392381,713,32.55
392396,715,33.19
392411,712,32.55
392427,712,33.19
392442,709,31.90
392458,709,32.55
392473,709,33.52
392489,710,32.87
392504,733,32.87
392519,756,32.23
392534,786,32.87
392549,814,32.55
392564,842,32.55
392579,864,32.23
392594,876,32.55
392609,886,32.55
392624,879,32.23
392640,872,32.87
392655,858,32.87
392670,839,33.52
392685,821,32.87
392700,800,33.52
392715,779,32.87
392730,756,32.23
392745,740,32.55
392760,728,32.87
392775,720,32.55
392790,718,32.87
392805,726,32.87
392821,721,32.55
392836,731,32.87
392851,731,33.19
392866,731,32.87
392881,733,33.19
392896,732,32.55
392911,730,32.55
392926,734,32.55
392941,731,32.87
392956,727,33.19
392971,728,33.19
392986,722,32.55
393001,717,33.19
393016,712,32.87
393031,701,33.19
393046,698,32.55
393061,704,32.23
393076,697,32.87
393091,712,32.87
393106,726,32.87
393121,751,33.52
393136,785,32.87
393151,813,32.87
393166,839,32.55
393181,860,32.55
393196,874,33.19
393211,881,33.52
393226,878,33.19
393241,864,32.55
393256,856,33.19
393271,844,33.19
393286,819,32.87
393301,797,31.90
393316,771,32.87
393331,751,32.87
393346,735,32.23
393361,724,32.55
393376,716,32.23
393391,714,31.90
393406,715,32.23
393421,719,32.23
393436,728,32.23
393451,731,32.55
393466,733,33.19
393481,732,32.87
393496,730,32.23
393511,733,32.55
393526,730,32.55
393541,728,32.55
393556,729,32.87
393571,726,32.87
393586,724,32.87
393601,718,33.19
393616,716,31.90
393631,712,32.87
393646,705,32.55
393661,709,32.87
393676,707,31.26
393691,710,32.55
393706,714,32.23
393721,741,32.23
393736,770,32.87
393751,796,32.55
393766,826,32.87
393781,850,33.19
393796,870,32.87
393811,878,32.87
393826,883,32.87
393841,879,33.19
393856,866,33.52
393871,855,33.19
393886,837,32.87
393901,816,32.87
393916,797,32.87
393931,774,32.55
393946,755,33.84
393961,737,33.52
393976,730,32.23
393991,726,32.23
394007,725,32.87
394022,724,31.90
394037,726,33.19
394052,731,32.55
394067,729,33.84
394082,730,32.87
394098,737,32.55
394113,730,31.90
394128,730,32.23
394143,730,32.55
394159,729,32.23
394175,729,32.55
394190,729,32.87
394206,723,32.55
394222,721,32.55
394237,720,32.87
394253,717,32.87
394268,711,32.87
394284,712,31.58
394300,709,32.87
394316,712,32.55
394332,717,32.55
394348,739,32.55
394363,764,32.87
394379,798,31.90
394395,830,33.19
394410,857,33.52
394426,879,33.52
394442,884,33.19
394458,883,32.87
394474,877,33.19
394490,861,33.19
394506,848,33.52
394522,830,32.87
394538,808,34.16
394554,786,33.19
394570,768,32.55
394586,746,32.55
394602,736,32.87
394618,724,32.23
394634,721,32.55
394650,719,32.55
394666,723,29.97
394682,727,32.55
394698,734,33.52
394714,735,32.87
394730,734,31.58
394746,733,32.23
394761,734,33.52
394777,735,33.19
394793,734,33.52
394808,727,33.52
394824,725,32.23
394839,727,33.19
394855,717,32.23
394871,715,32.23
394887,716,33.19
394902,709,32.23
394918,706,33.84
394933,710,32.55
394949,720,32.87
394964,743,32.87
394980,773,32.87
394996,805,32.87
395011,830,32.55
395027,858,33.52
395042,868,32.23
395058,876,33.19
395073,873,32.23
395088,862,32.23
395104,850,32.87
395119,831,31.90
395135,812,32.55
395150,786,32.55
395165,765,33.19
395180,744,32.87
395196,732,33.19
395212,728,32.87
395227,715,32.87
395242,716,32.87
395257,718,32.87
395273,722,33.19
395288,728,33.19
395303,730,32.87
395318,731,32.23
395334,734,32.55
395349,735,33.19
395364,735,32.55
395379,728,33.19
395394,726,33.19
395409,721,31.26
395424,725,32.55
395439,721,32.55
395454,718,32.87
395469,716,32.55
395484,712,31.90
395499,709,32.87
395514,713,32.87
395529,707,31.90
395544,712,33.19
395559,732,34.16
395574,762,33.19
395589,791,31.90
395604,822,33.52
395619,849,32.23
395634,866,32.55
395649,878,32.55
395664,877,32.87
395679,874,33.19
395694,865,32.87
395709,852,32.87
395724,836,33.52
395739,817,32.23
395754,797,32.55
395769,777,32.87
395784,757,32.23
395799,739,32.55
395814,735,32.87
395829,720,32.87
395844,720,32.87
395859,719,32.55
395874,730,32.23
395889,732,32.87
395904,730,33.19
395919,731,32.55
395934,739,32.87
395949,734,32.87
395964,732,33.19
395979,734,33.19
395994,730,33.52
396009,727,32.87
396024,723,32.87
396039,734,32.87
396054,721,33.19
396069,714,30.94
396084,710,32.23
396099,711,32.87
396114,705,32.87
396129,707,32.87
396144,706,33.19
396159,724,32.87
396174,741,33.19
396189,773,32.87
396204,804,32.87
396219,836,32.87
396234,860,32.87
396249,876,32.87
396264,885,33.19
396279,886,32.87
396294,882,30.29
396309,871,32.23
396324,855,33.52
396339,838,33.52
396354,818,32.55
396369,794,32.55
396384,774,33.19
396399,752,32.55
396414,731,33.19
396429,721,33.19
396444,717,32.23
396459,714,31.90
396474,717,31.90
396489,719,32.87
396504,727,33.19
396519,729,32.87
396534,733,32.23
396549,735,32.23
396564,735,32.87
396579,737,33.19
396594,732,32.87
396609,731,32.87
396624,729,32.87
396639,728,32.87
396654,719,33.19
396669,722,33.19
396684,712,32.87
396699,707,32.55
396714,705,32.23
396729,705,32.55
396744,707,32.87
396759,711,33.19
396774,723,33.19
396789,743,32.87
396804,769,33.52
396819,798,32.55
396834,825,32.87
396849,854,32.23
396864,872,32.87
396879,879,32.87
396894,880,32.87
396909,876,32.55
396924,864,32.55
396939,846,33.52
396954,835,33.19
396969,813,32.23
396984,792,32.87
396999,771,32.87
397014,751,32.87
397029,734,31.90
397044,726,32.23
397059,726,32.87
397074,731,32.87
397089,725,33.19
397104,723,32.87
397119,729,32.55
397134,738,32.87
397149,729,32.23
397164,733,32.87
397179,734,32.87
397194,732,33.19
397209,731,32.55
397224,731,32.87
397239,727,32.55
397254,720,32.87
397269,715,33.19
397284,712,31.90
397299,710,32.87
397314,709,32.55
397329,707,32.55
397344,710,32.55
397359,711,32.87
397374,720,33.19
397389,738,33.19
397404,765,32.87
397419,788,32.55
397434,820,31.58
397449,842,33.19
397464,860,32.87
397479,874,33.19
397494,874,33.19
397509,871,32.23
397524,866,32.87
397539,845,32.87
397554,829,33.19
397569,808,32.23
397584,783,33.19
397599,765,31.90
397614,748,32.55
397629,732,32.55
397644,723,32.23
397659,718,31.90
397674,720,32.23
397689,722,32.87
397704,721,32.87
397719,724,32.55
397734,728,33.19
397749,730,32.55
397764,732,31.90
397779,729,32.87
397794,735,32.23
397809,738,32.55
397824,736,32.87
397839,729,31.90
397854,725,32.23
397869,719,33.19
397884,721,32.87
397899,710,32.87
397914,711,32.87
397929,713,32.87
397944,712,32.87
397959,713,32.87
397974,719,32.23
397989,732,31.90
398004,752,32.87
398019,782,32.55
398034,809,33.52
398049,836,32.87
398064,858,32.23
398079,870,32.23
398094,881,32.87
398109,880,32.55
398124,877,32.87
398139,868,33.52
398154,853,31.90
398169,830,32.87
398184,811,32.55
398199,791,32.87
398214,769,32.55
398229,753,33.19
398244,742,33.52
398259,733,32.55
398274,728,32.87
398289,727,32.87
398304,729,32.23
398319,725,32.87
398334,726,32.87
398349,726,32.87
398364,731,32.87
398379,731,32.55
398394,734,32.87
398409,736,32.87
398424,736,32.87
398439,740,32.87
398454,729,31.90
398469,728,32.87
398484,723,33.19
398499,720,32.55
398514,717,32.87
398529,715,31.90
398544,717,33.19
398559,713,32.23
398574,715,32.55
398589,721,32.23
398604,740,32.55
398619,763,31.90
398634,795,33.19
398649,821,33.19
398664,848,33.84
398679,869,32.87
398694,879,32.23
398709,886,32.87
398724,884,33.19
398739,868,31.90
398754,855,33.19
398769,835,32.87
398784,815,32.55
398799,796,32.87
398814,772,32.55
398829,753,33.19
398844,740,32.87
398859,728,32.23
398874,725,32.87
398889,728,33.19
398904,723,33.19
398919,724,33.19
398934,727,32.23
398949,725,32.87
398964,731,33.19
398979,731,32.87
398994,731,31.90
399009,734,32.55
399024,732,31.90
399039,731,32.55
399054,728,32.55
399069,729,32.55
399084,725,32.55
399099,723,33.19
399114,720,32.23
399129,716,33.19
399144,715,33.19
399159,713,32.23
399174,720,31.90
399189,723,31.90
399204,748,32.87
399219,767,33.52
399234,794,33.19
399249,820,33.52
399264,841,32.23
399279,859,33.19
399294,868,33.19
399309,868,33.19
399324,863,33.19
399339,850,33.19
399354,837,32.87
399369,816,32.55
399384,796,32.23
399399,775,32.55
399414,753,33.52
399429,744,32.23
399444,727,34.80
399459,721,32.87
399474,719,31.90
399489,721,32.55
399504,719,32.23
399519,725,32.87
399534,727,33.19
399549,733,32.55
399564,732,33.19
399579,736,32.87
399594,740,33.52
399609,733,32.55
399624,738,32.23
399639,731,32.23
399654,726,32.23
399669,721,32.55
399684,715,31.90
399699,713,32.23
399714,714,32.87
399729,709,33.52
399744,709,32.23
399759,709,33.19
399774,717,32.87
399789,733,32.87
399804,756,32.23
399819,781,32.87
399834,812,33.52
399849,839,32.55
399864,860,33.19
399879,882,33.19
399894,888,32.87
399909,886,32.55
399924,876,32.55
399939,867,33.19
399954,846,33.52
399969,824,33.19
399984,804,32.87
399999,782,32.55
400014,763,32.87
400029,747,31.58
400044,738,32.23
400059,731,33.19
400074,730,32.87
400089,731,32.87
400104,728,32.87
400119,730,32.87
400134,726,33.19
400149,734,32.87
400164,732,32.23
400179,736,32.87
400194,740,32.87
400209,739,33.19
400224,730,32.87
400239,736,33.52
400254,730,33.19
400269,723,32.87
400284,716,32.23
400299,718,33.19
400314,710,32.55
400329,712,32.87
400344,710,32.23
400359,715,32.55
400374,717,32.55
400389,729,33.19
400404,754,33.19
400419,780,32.55
400434,816,33.19
400449,844,33.19
400464,866,32.87
400479,884,32.23
400494,891,32.55
400509,891,33.19
400524,884,32.23
400539,874,33.52
400554,862,33.19
400569,838,33.19
400584,818,32.23
400599,795,33.19
400614,770,32.87
400629,756,32.87
400644,746,33.19
400659,733,32.87
400674,729,32.23
400689,721,32.55
400704,723,32.23
400719,724,32.23
400734,728,31.90
400749,730,32.23
400764,734,32.55
400779,733,32.87
400794,733,33.52
400809,733,32.87
400824,731,32.55
400839,731,33.19
400854,729,33.19
400869,724,32.87
400884,718,32.87
400899,715,32.55
400914,709,33.19
400929,710,32.55
400944,712,32.55
400959,716,32.23
400974,709,32.55
400989,715,33.19
401004,721,32.87
401019,743,32.87
401034,769,32.55
401049,802,33.19
401064,829,32.23
401079,863,32.23
401094,882,32.87
401109,893,33.19
401124,899,33.19
401139,893,34.16
401154,877,31.58
401169,857,32.87
401184,839,32.87
401199,815,32.87
401214,795,32.55
401229,775,31.90
401244,756,32.87
401259,745,33.19
401274,732,32.87
401289,723,32.23
401304,719,33.52
401319,721,33.84
401334,722,32.23
401349,728,32.87
401364,728,33.52
401379,736,33.19
401394,742,32.87
401409,742,32.23
401424,743,32.87
401439,743,33.19
401454,736,32.55
401469,732,32.87
401484,722,33.19
401499,718,32.87
401514,719,32.87
401529,715,32.87
401544,713,32.87
401559,715,32.87
401574,709,33.19
401589,710,32.23
401604,710,32.23
401619,718,33.19
401634,740,32.55
401649,766,33.19
401664,798,32.87
401679,828,31.90
401694,855,33.52
401709,876,33.52
401724,887,32.23
401739,885,33.19
401754,880,33.19
401769,865,33.19
401784,845,32.87
401799,829,32.23
401814,808,32.87
401829,792,32.55
401844,766,32.55
401859,747,32.87
401874,732,31.26
401889,723,33.19
401904,718,32.55
401919,717,32.55
401934,718,32.87
401949,721,32.23
401964,724,32.55
401979,735,32.55
401994,738,32.55
402009,744,32.55
402024,744,32.23
402039,742,32.87
402054,735,33.19
402069,729,32.55
402084,723,33.19
402099,724,32.87
402114,721,32.87
402129,721,32.87
402144,714,32.87
402159,716,33.19
402174,714,32.87
402189,712,33.19
402204,709,32.87
402219,711,32.87
402234,724,31.90
402249,748,32.55
402264,781,31.90
402279,814,32.87
402294,845,33.19
402309,872,32.23
402324,888,33.19
402339,893,33.19
402354,891,32.23
402369,881,32.87
402384,865,32.55
402399,849,33.19
402414,834,31.90
402429,809,32.87
402444,789,33.52
402459,772,32.87
402474,757,33.19
402489,736,33.19
402504,729,32.87
402519,716,33.19
402534,713,32.55
402549,714,32.23
402564,717,33.19
402579,722,33.52
402594,727,32.87
402609,730,31.90
402624,733,32.55
402639,732,32.23
402654,733,33.19
402669,731,32.23
402684,728,32.55
402699,723,33.19
402714,720,32.87
402729,723,32.23
402744,717,33.52
402759,720,32.23
402774,715,32.23
402789,716,33.19
402804,711,31.90
402819,716,32.55
402834,714,32.55
402849,727,32.87
402864,752,33.19
402879,782,32.87
402894,816,33.84
402909,846,31.90
402924,870,32.23
402939,887,33.19
402954,890,33.19
402969,886,33.19
402984,878,32.87
402999,863,32.55
403014,850,32.87
403029,831,32.87
403044,811,32.87
403059,790,32.55
403074,775,32.55
403089,748,32.55
403104,737,32.23
403119,726,32.23
403134,719,33.84
403149,717,32.87
403164,720,33.19
403179,724,33.52
403194,733,32.55
403209,729,32.87
403224,732,32.55
403239,730,32.23
403254,735,32.87
403269,733,33.19
403284,729,33.52
403299,725,32.23
403314,725,33.19
403329,725,33.19
403344,721,32.87
403359,721,32.55
403374,717,31.90
403389,719,31.90
403404,711,32.87
403419,709,32.23
403434,702,32.23
403449,709,33.19
403464,728,32.55
403479,757,32.87
403494,793,32.87
403509,827,33.52
403524,852,33.19
403539,868,32.87
403554,886,33.52
403569,885,33.19
403584,878,33.19
403599,865,32.23
403614,850,32.87
403629,837,32.87
403644,815,33.19
403659,794,32.23
403674,773,32.55
403689,750,32.23
403704,736,32.87
403719,727,32.55
403734,718,32.55
403749,713,32.87
403764,718,32.23
403779,724,33.19
403794,727,32.55
403809,732,31.90
403824,737,32.23
403839,738,33.52
403854,737,33.19
403869,736,31.90
403884,734,32.55
403899,733,32.55
403914,724,31.90
403929,722,31.90
403944,725,32.87
403959,722,33.19
403974,719,32.23
403989,717,32.87
404004,711,32.55
404019,710,32.87
404034,713,33.19
404049,716,32.55
404064,729,32.23
404079,758,32.87
404094,789,32.87
404109,823,32.87
404124,852,33.19
404139,874,32.23
404154,883,33.52
404169,887,32.55
404184,884,32.55
404199,870,31.90
404214,857,32.23
404229,838,32.55
404244,815,32.55
404259,800,32.55
404274,776,32.87
404289,752,33.52
404304,735,33.52
404319,724,32.23
404334,718,31.90
404349,716,32.23
404364,717,33.52
404379,721,33.19
404394,726,31.90
404409,729,33.84
404424,738,32.55
404439,728,31.90
404454,738,33.19
404469,742,32.55
404484,730,33.19
404499,729,32.87
404514,725,32.55
404529,723,31.58
404544,725,32.87
404559,721,33.19
404574,718,31.90
404589,714,32.87
404604,712,31.90
404619,708,33.19
404634,710,32.55
404649,712,33.19
404664,732,32.23
404679,762,32.23
404694,793,32.87
404709,824,33.19
404724,854,32.87
404740,876,33.19
404755,886,33.19
404770,893,32.23
404785,888,34.48
404800,876,33.19
404815,861,32.23
404830,844,32.55
404845,827,32.87
404861,810,33.52
404876,789,33.19
404891,770,32.87
404906,754,32.23
404921,734,32.55
404936,723,32.87
404952,719,33.19
404968,716,32.55
404983,717,33.19
404999,718,33.19
405014,725,31.90
405030,729,32.55
405046,731,33.19
405061,736,32.87
405077,739,32.87
405093,735,32.87
405108,733,32.55
405124,730,32.87
405140,726,32.55
405156,723,32.55
405172,718,32.23
405188,719,33.19
405204,713,32.55
405220,714,32.87
405236,710,32.87
405252,714,32.87
405268,725,33.52
405284,749,32.87
405300,780,33.52
405316,813,33.19
405332,848,32.87
405348,871,32.87
405364,887,32.87
405380,887,33.19
405396,889,32.87
405412,873,32.23
405428,860,32.23
405444,845,32.55
405460,819,32.55
405476,800,32.23
405492,774,32.23
405508,755,31.90
405524,738,32.87
405540,726,32.55
405556,725,33.19
405572,718,32.55
405588,717,34.16
405604,724,32.23
405620,735,32.87
405635,734,33.19
405651,734,32.55
405667,734,32.87
405683,733,32.23
405699,731,33.19
405715,729,32.87
405730,732,32.23
405746,726,32.87
405761,723,33.19
405777,720,33.19
405793,719,32.87
405808,713,31.90
405824,709,32.55
405839,708,32.55
405855,707,32.23
405871,714,32.55
405886,733,32.87
405902,763,33.19
405917,795,32.23
405933,830,32.87
405949,856,33.19
405964,874,32.87
405980,880,32.87
405996,879,32.87
406011,868,33.19
406027,854,32.23
406042,835,31.90
406058,814,32.87
406074,790,32.55
406089,770,31.90
406105,750,32.23
406120,730,33.19
406135,722,32.87
406150,715,32.55
406165,712,32.55
406180,716,31.90
406196,726,33.19
406211,727,32.23
406226,731,32.87
406241,736,32.55
406256,736,31.90
406271,737,32.55
406286,738,32.55
406301,732,33.19
406316,731,32.55
406331,726,33.19
406346,726,32.87
406361,724,32.23
406376,722,32.87
406391,720,32.87
406406,711,31.90
406421,712,33.52
406436,708,32.87
406451,702,32.87
406466,709,32.23
406481,721,32.55
406496,748,32.55
406511,786,32.55
406526,811,32.55
406541,844,32.87
406556,867,32.55
406571,881,32.55
406586,887,33.19
406601,881,32.55
406616,876,33.19
406631,865,32.87
406646,847,32.23
406661,832,32.55
406676,811,33.52
406691,792,33.52
406706,777,33.19
406721,757,32.55
406736,747,32.55
406751,731,33.19
406766,726,32.23
406781,725,32.55
406796,728,33.19
406811,732,32.23
406826,728,32.87
406841,739,32.55
406856,737,32.55
406871,735,32.55
406886,735,32.55
406901,732,32.87
406916,731,33.52
406931,727,32.55
406946,728,31.58
406961,728,32.87
406976,722,32.23
406991,718,32.23
407006,720,33.52
407021,712,32.55
407036,711,31.90
407051,710,32.87
407066,705,32.55
407081,710,32.87
407097,727,31.90
407112,745,32.87
407127,776,32.87
407142,813,32.87
407157,839,33.19
407172,866,32.87
407188,884,32.55
407203,896,33.19
407218,893,32.23
407233,888,33.52
407248,876,33.19
407263,864,33.52
407279,845,33.19
407294,823,32.87
407309,799,32.23
407324,780,32.87
407339,763,33.52
407354,741,33.19
407370,728,32.87
407386,720,32.55
407401,720,34.48
407417,723,32.55
407432,722,32.87
407448,726,32.87
407464,728,33.19
407479,736,32.87
407495,734,32.87
407511,737,33.19
407527,734,32.55
407543,726,32.87
407559,721,32.55
407574,724,32.87
407590,721,32.55
407606,717,32.55
407621,711,32.23
407637,708,33.19
407653,708,32.23
407668,705,32.23
407684,704,32.55
407700,709,32.87
407716,722,32.87
407732,738,32.87
407748,768,32.23
407764,802,33.19
407780,836,33.19
407796,864,33.19
407811,880,32.87
407827,886,32.87
407843,881,32.23
407859,870,33.52
407875,856,32.55
407891,836,32.55
407907,816,32.55
407923,793,32.23
407939,776,32.87
407954,747,32.87
407970,730,32.55
407986,718,33.19
408002,713,32.55
408018,710,32.55
408034,715,32.87
408049,716,33.52
408065,723,33.19
408081,730,31.90
408096,733,32.55
408112,738,32.87
408128,739,32.87
408144,739,32.87
408160,734,33.19
408175,733,32.87
408191,727,33.19
408207,724,33.19
408222,718,32.87
408238,712,33.19
408254,701,32.87
408269,707,32.87
408285,702,32.55
408300,700,31.58
408316,704,33.19
408331,721,32.55
408346,744,33.19
408362,778,31.58
408377,810,33.19
408393,843,33.19
408408,869,33.19
408424,884,33.84
408439,887,33.52
408454,882,32.87
408470,867,32.55
408485,854,32.87
408501,831,32.55
408516,811,33.52
408532,793,32.87
408548,769,32.55
408563,753,32.87
408579,736,32.87
408594,723,32.23
408609,716,32.23
408624,714,32.55
408640,718,33.19
408655,724,33.19
408670,727,32.23
408685,730,32.87
408700,732,33.19
408715,730,32.87
408730,735,32.87
408745,735,32.23
408760,736,32.87
408775,733,32.23
408790,730,32.87
408805,724,32.87
408820,720,33.19
408835,715,32.23
408850,706,31.90
408865,710,32.87
408880,712,32.87
408895,712,33.19
408910,708,33.52
408925,713,32.87
408940,716,32.87
408955,736,32.55
408970,763,32.55
408985,796,32.55
409000,829,33.19
409015,858,32.87
409030,881,33.19
409045,893,33.52
409060,897,33.52
409075,898,33.52
409090,880,32.87
409105,866,33.19
409120,843,32.87
409135,821,32.23
409150,800,33.19
409165,777,32.87
409180,767,33.19
409195,746,32.23
409210,735,32.55
409225,725,32.55
409240,721,32.87
409255,717,32.87
409270,720,32.87
409285,721,32.87
409300,725,32.55
409315,728,32.87
409330,734,32.23
409345,737,32.55
409360,739,32.87
409375,736,32.87
409390,733,33.52
409405,727,31.58
409420,724,32.87
409435,716,32.23
409450,715,32.87
409465,719,33.52
409480,714,32.23
409495,716,32.55
409511,714,33.52
409526,713,33.19
409541,712,32.23
409556,713,32.87
409571,727,32.87
409586,755,32.55
409601,780,33.19
409616,814,32.23
409632,851,33.84
409647,873,33.19
409663,888,32.23
409679,896,33.84
409694,891,32.87
409710,884,32.87
409725,867,32.87
409740,847,32.87
409755,826,32.55
409770,802,33.19
409785,781,32.87
409801,757,32.87
409817,742,32.87
409832,727,32.87
409848,717,32.23
409863,718,32.23
409879,724,32.87
409895,727,32.55
409910,726,32.87
409926,734,32.55
409942,735,32.87
409958,735,32.55
409974,738,33.19
409990,737,32.87
410005,732,33.19
410021,727,32.87
410037,722,32.87
410053,716,32.55
410069,717,32.23
410085,709,33.19
410100,712,32.55
410116,714,32.87
410132,711,31.90
410148,709,32.87
410164,711,33.19
410180,718,33.52
410196,722,31.90
410212,743,32.23
410228,773,32.87
410244,806,33.52
410260,838,32.87
410276,864,32.87
410292,881,32.55
410308,889,33.52
410324,891,33.19
410340,876,32.23
410356,862,33.19
410372,838,32.23
410388,816,32.23
410404,796,32.55
410420,772,33.19
410436,752,32.87
410452,736,32.87
410467,725,32.87
410483,721,33.52
410499,720,32.87
410515,720,32.23
410531,724,32.55
410547,729,31.58
410562,731,32.87
410578,737,32.87
410593,738,33.19
410609,733,33.19
410625,736,33.19
410640,731,31.90
410656,729,32.55
410672,724,32.87
410687,719,31.90
410703,715,32.55
410718,712,32.55
410734,708,32.87
410750,706,32.23
410765,708,32.55
410781,709,32.87
410796,711,30.94
410812,727,32.23
410828,748,33.19
410843,776,32.87
410858,808,32.55
410873,837,33.84
410889,864,32.87
410904,876,33.19
410920,880,32.87
410936,877,33.19
410951,868,32.55
410967,853,32.87
410982,837,33.19
410997,818,32.55
411012,802,33.19
411028,776,32.87
411043,759,33.19
411058,740,32.87
411073,725,32.87
411088,716,33.19
411103,714,32.55
411118,710,31.90
411133,708,31.90
411148,722,32.23
411163,728,32.87
411178,732,32.23
411193,735,33.19
411208,738,32.23
411223,736,33.19
411238,732,33.19
411253,729,32.23
411268,726,32.87
411283,723,31.90
411298,721,32.87
411313,720,33.84
411328,719,32.87
411343,718,32.55
411358,713,32.87
411373,709,33.19
411388,711,32.87
411403,707,32.23
411418,715,32.23
411433,734,31.90
411448,760,33.19
411463,797,32.55
411478,830,33.52
411493,859,33.19
411508,876,32.55
411523,887,32.23
411538,889,33.19
411553,881,32.87
411568,870,32.23
411583,859,32.23
411598,841,33.52
411613,822,32.87
411628,804,33.52
411643,783,32.55
411658,765,32.87
411673,745,32.87
411688,731,32.55
411703,722,32.87
411718,721,33.52
411733,718,33.19
411748,722,32.55
411763,727,31.58
411778,735,33.19
411793,733,33.19
411808,734,31.90
411823,734,31.90
411838,738,32.87
411853,731,33.19
411868,727,32.87
411883,722,32.87
411898,730,32.87
411913,721,32.87
411928,718,32.55
411943,717,32.23
411958,710,33.19
411973,707,31.26
411988,701,32.87
412003,701,32.55
412018,701,32.87
412033,710,32.87
412048,729,33.52
412063,762,32.55
412078,787,32.23
412093,821,33.19
412108,852,32.23
412123,872,33.19
412138,883,33.19
412153,886,32.23
412168,879,31.90
412183,869,32.23
412198,860,32.55
412213,840,32.87
412228,822,32.87
412243,802,33.52
412258,777,33.19
412273,755,33.19
412288,740,33.19
412303,729,32.87
412318,719,32.87
412333,721,32.23
412348,719,32.55
412363,721,32.23
412378,724,32.55
412393,728,32.23
412408,738,32.87
412423,735,32.87
412438,734,31.90
412453,734,31.90
412468,739,32.55
412483,732,33.19
412498,727,32.55
412513,725,32.87
412528,725,33.19
412543,720,32.55
412558,717,32.23
412573,708,32.55
412588,707,32.87
412603,703,31.26
412618,700,32.23
412633,708,32.87
412648,725,33.19
412663,751,32.23
412678,780,32.23
412693,811,32.55
412708,839,32.87
412723,861,32.87
412738,869,33.19
412753,872,32.55
412768,874,32.87
412783,860,33.52
412798,851,32.87
412813,833,33.19
412828,813,32.87
412843,794,33.19
412858,772,31.90
412873,753,32.55
412888,737,33.19
412903,727,32.87
412918,716,32.87
412933,723,33.19
412948,714,31.90
412963,723,32.55
412978,726,33.52
412993,730,32.87
413008,730,31.90
413023,732,33.19
413038,734,33.19
413053,734,32.23
413068,736,32.23
413083,733,32.87
413098,730,32.23
413113,727,32.55
413128,725,32.55
413143,720,31.90
413158,718,32.55
413173,712,33.19
413188,709,33.19
413203,708,33.19
413218,706,31.90
413233,709,33.19
413248,726,32.87
413263,751,33.19
413278,784,32.23
413293,818,32.87
413308,845,31.90
413323,867,33.19
413338,877,33.19
413353,884,32.55
413368,881,31.90
413383,872,32.55
413398,862,33.19
413413,846,33.52
413428,826,33.52
413443,807,32.55
413458,782,33.52
413473,765,32.55
413488,745,32.23
413503,733,32.87
413519,720,33.19
413534,726,33.19
413549,720,33.19
413564,724,32.87
413579,729,31.90
413594,733,32.87
413609,738,32.87
413624,735,32.55
413639,736,32.23
413654,737,32.23
413669,740,33.19
413684,731,33.52
413699,730,32.23
413714,723,33.52
413729,718,32.55
413744,716,33.19
413759,713,32.87
413774,711,33.19
413789,705,32.55
413804,710,32.87
413819,703,33.52
413834,713,32.87
413849,713,33.52
413864,735,32.23
413879,763,32.23
413894,793,32.23
413909,827,33.19
413924,852,33.19
413939,873,33.19
413954,884,32.55
413969,895,33.19
413984,884,33.19
413999,875,32.87
414014,861,32.87
414029,845,31.90
414044,825,32.87
414059,801,32.55
414074,779,32.55
414089,761,32.87
414104,740,33.52
414119,727,33.52
414134,720,31.90
414149,719,31.58
414164,718,32.87
414179,724,32.55
414194,728,33.52
414209,727,32.23
414224,731,32.55
414239,737,33.52
414254,729,32.87
414269,731,32.87
414284,731,32.87
414299,734,31.26
414314,731,32.23
414329,727,32.55
414344,724,32.23
414359,721,32.87
414374,713,32.55
414389,713,33.19
414404,709,32.55
414419,703,32.55
414434,707,33.19
414449,705,32.87
414464,709,33.19
414479,722,32.55
414494,747,33.19
414509,775,32.55
414524,808,32.23
414539,839,32.87
414554,866,32.87
414569,879,32.55
414584,891,32.55
414599,891,31.58
414614,883,33.52
414629,873,32.55
414644,858,32.87
414659,836,32.87
414674,813,31.90
414689,797,31.90
414704,770,33.19
414719,750,31.90
414734,738,32.55
414749,727,32.55
414764,729,32.55
414779,721,32.23
414794,724,32.87
414809,728,31.90
414824,730,33.19
414839,730,32.87
414854,734,33.19
414869,736,32.87
414884,738,32.55
414899,739,33.19
414914,736,33.19
414929,737,32.87
414944,732,32.23
414959,725,32.23
414974,721,32.87
414989,718,32.55
415004,712,32.87
415019,709,33.19
415034,711,32.23
415049,710,33.52
415064,706,32.55
415079,700,33.52
415094,707,32.87
415109,720,33.19
415124,737,33.19
415139,773,32.87
415154,803,32.87
415169,832,32.87
415184,861,33.19
415199,874,33.19
415214,882,33.19
415229,883,33.19
415244,873,32.87
415259,858,32.87
415274,840,31.90
415289,820,33.19
415304,798,32.87
415319,777,33.19
415334,757,32.55
415349,738,32.87
415364,735,32.55
415379,722,32.55
415395,715,31.90
415410,719,32.87
415425,718,32.87
415440,720,32.87
415455,726,32.87
415470,728,32.23
415485,730,33.19
415500,739,32.55
415515,742,32.55
415530,738,33.52
415545,735,31.90
415560,733,32.23
415576,731,31.58
415591,722,32.87
415606,724,32.87
415621,717,32.23
415636,710,31.90
415651,708,32.87
415667,706,32.87
415682,709,32.23
415697,713,32.55
415712,712,31.90
415727,720,32.23
415742,737,32.87
415757,761,32.55
415772,791,33.19
415788,824,32.87
415804,845,31.90
415819,868,32.87
415835,881,33.52
415850,883,32.55
415865,879,32.87
415880,866,33.52
415896,850,32.87
415912,838,32.87
415927,811,33.19
415943,788,32.23
415959,765,32.87
415974,744,32.23
415990,733,32.55
416006,722,32.87
416021,722,33.52
416037,717,32.23
416053,718,32.23
416069,720,32.87
416085,727,32.55
416100,730,32.87
416116,731,32.23
416132,737,32.87
416148,738,31.90
416164,739,31.90
416180,734,32.87
416196,728,32.87
416212,722,32.87
416228,723,32.55
416244,721,32.87
416260,716,33.19
416276,715,32.87
416292,710,33.84
416308,706,32.87
416324,708,32.55
416340,710,32.87
416356,716,31.90
416372,732,31.58
416388,762,32.23
416404,796,32.55
416420,832,32.87
416436,859,32.23
416452,876,32.55
416467,883,33.19
416483,887,32.87
416499,878,33.19
416515,867,33.19
416531,848,32.87
416547,828,33.19
416562,811,32.23
416578,786,31.90
416594,768,33.52
416609,746,31.90
416625,741,31.90
416640,727,32.23
416656,722,32.87
416672,721,33.52
416687,719,32.87
416703,719,32.87
416718,721,33.19
416734,727,33.52
416749,729,32.55
416765,731,33.19
416781,739,33.19
416796,735,32.87
416812,731,32.23
416828,731,32.55
416843,720,32.87
416859,721,32.55
416874,713,32.87
416890,717,33.19
416906,713,33.52
416921,712,31.90
416937,712,32.23
416952,709,33.52
416967,710,33.19
416982,715,32.87
416997,728,32.87
417012,749,32.55
417028,780,33.19
417043,810,33.19
417058,834,32.87
417073,854,32.87
417088,862,32.55
417103,876,32.55
417118,864,32.23
417133,855,32.87
417148,848,32.87
417163,835,33.52
417178,819,32.87
417193,798,32.23
417209,775,32.55
417224,758,32.87
417239,739,32.55
417254,727,31.90
417269,721,32.55
417284,719,33.19
417299,718,32.23
417314,725,32.87
417329,728,33.19
417344,729,33.19
417359,731,33.52
417374,732,33.19
417389,732,31.90
417404,731,33.19
417419,733,31.26
417434,731,32.87
417449,731,32.87
417464,724,32.23
417479,719,33.19
417494,719,32.87
417509,716,32.55
417524,710,33.19
417539,710,32.87
417554,711,32.87
417569,707,33.19
417584,711,32.55
417599,721,31.90
417614,726,33.52
417629,745,32.55
417644,773,32.23
417659,798,33.19
417674,824,32.87
417689,849,33.52
417704,862,32.87
417719,870,32.23
417734,871,33.19
417749,866,31.90
417764,858,32.87
417779,842,33.19
417794,822,32.87
417809,807,32.55
417824,789,33.19
417839,768,32.55
417854,752,32.87
417869,741,33.19
417884,726,32.55
417899,720,32.23
417914,723,32.55
417929,717,32.23
417944,723,32.87
417959,722,32.87
417974,721,32.87
417989,725,32.23
418004,728,32.23
418019,729,31.58
418034,731,33.19
418049,735,32.23
418064,733,33.19
418080,730,32.55
418095,725,32.55
418110,719,32.87
418125,717,32.87
418140,711,32.23
418155,709,32.87
418171,708,32.87
418186,707,32.87
418201,706,32.23
418216,705,33.19
418232,709,32.55
418248,715,32.23
418263,730,32.55
418279,761,33.19
418294,790,32.87
418309,819,33.19
418324,842,32.55
418340,870,33.19
418356,881,33.19
418371,882,32.87
418387,877,32.23
418403,864,33.19
418418,853,32.87
418434,841,33.52
418449,823,33.19
418465,805,31.90
418481,789,32.87
418497,768,32.87
418513,748,32.87
418529,735,32.87
418544,728,33.19
418560,721,32.87
418576,721,32.87
418592,725,32.23
418608,727,33.19
418624,731,32.87
418640,735,32.55
418656,737,33.19
418672,735,32.87
418688,733,32.55
418704,736,33.19
418720,731,32.23
418736,730,32.55
418751,730,32.55
418767,730,32.87
418783,722,32.87
418799,721,32.55
418815,717,32.23
418831,713,32.55
418847,708,33.19
418863,705,31.90
418879,703,31.90
418895,708,32.23
418911,727,32.87
418927,752,31.90
418942,784,32.87
418958,814,32.55
418974,845,33.19
418990,869,32.87
419006,885,32.87
419022,883,32.87
419038,876,32.87
419053,863,32.23
419069,851,33.19
419084,831,32.87
419100,814,33.19
419116,791,32.87
419131,772,33.19
419147,764,32.23
419162,746,32.23
419178,736,32.55
419194,733,33.52
419209,732,32.87
419225,731,33.19
419241,732,32.55
419256,735,32.87
419272,736,32.87
419287,738,32.55
419303,739,33.19
419319,740,33.19
419334,745,33.19
419349,743,31.58
419364,738,32.55
419380,733,32.55
419395,729,32.23
419411,726,32.87
419426,718,33.52
419441,716,32.87
419456,708,32.87
419471,707,32.55
419486,709,32.55
419502,707,32.23
419517,712,32.55
419532,720,32.87
419547,737,32.87
419562,760,32.55
419577,784,32.23
419592,818,33.19
419607,841,32.23
419622,857,31.90
419637,871,32.87
419653,869,33.19
419668,867,33.19
419683,858,33.19
419698,847,32.87
419713,829,32.55
419728,810,32.55
419743,790,33.52
419758,768,32.87
419773,751,32.87
419788,738,32.55
419803,726,31.90
419818,725,32.55
419833,725,32.87
419848,724,33.19
419863,728,33.19
419878,734,32.23
419893,739,32.87
419908,741,33.19
419923,746,32.87
419938,748,32.55
419953,745,32.55
419968,751,32.87
419983,751,32.87
419998,745,31.90
420013,743,32.87
420028,737,32.55
420043,734,33.52
420058,731,33.19
420073,728,32.87
420088,716,32.87
420103,720,33.52
420118,722,33.19
420133,724,32.87
420148,721,32.23
420163,728,31.90
420178,741,32.87
420193,766,34.16
420208,792,33.19
420223,821,32.87
420238,846,32.55
420253,866,32.55
420268,884,32.87
420283,884,32.55
420298,883,32.87
420313,875,32.87
420328,860,32.23
420343,842,33.19
420358,821,33.19
420373,805,33.52
420388,782,33.19
420403,764,32.23
420418,749,32.55
420433,739,32.23
420448,729,32.23
420463,723,32.23
420478,718,32.87
420494,720,33.19
420509,719,32.87
420524,719,31.90
420539,725,33.19
420554,721,32.87
420569,734,32.55
420585,727,33.52
420600,729,32.87
420615,729,32.23
420630,730,31.90
420645,728,32.87
420660,720,32.55
420675,720,33.19
420690,715,32.87
420705,712,32.23
420720,713,32.87
420735,712,33.19
420750,710,32.87
420765,712,32.87
420780,708,33.52
420796,706,32.87
420811,712,31.90
420826,726,32.87
420841,756,32.87
420856,789,32.87
420871,822,33.19
420887,852,31.90
420903,874,32.23
420918,884,32.55
420934,887,33.19
420949,886,32.55
420965,874,33.19
420981,858,33.19
420996,834,32.23
421012,815,32.87
421028,792,33.19
421043,770,32.87
421059,749,31.90
421074,737,32.23
421090,729,32.87
421106,724,32.55
421121,723,32.55
421137,721,33.52
421153,725,32.87
421168,732,33.19
421184,731,32.23
421200,735,33.19
421216,736,33.19
421232,741,32.55
421247,740,32.55
421263,735,32.55
421279,732,32.23
421295,732,31.90
421311,726,33.52
421327,726,32.55
421342,719,32.87
421358,719,32.23
421374,714,32.55
421390,712,32.23
421406,710,33.52
421422,708,33.19
421437,716,32.55
421453,731,32.87
421468,761,32.87
421484,793,33.19
421500,824,32.87
421515,851,32.23
421531,871,32.87
421547,877,32.55
421562,876,33.19
421578,868,32.23
421593,856,32.23
421609,838,33.19
421624,821,32.23
421640,803,33.19
421656,778,32.55
421672,760,32.23
421687,744,32.87
421702,714,32.55
421717,725,33.19
421733,723,32.87
421748,718,32.23
421764,722,33.19
421779,724,32.55
421795,726,32.23
421811,728,32.55
421826,729,30.62
421842,729,33.19
421857,734,32.87
421872,727,34.16
421887,725,32.23
421903,721,33.52
421918,723,32.23
421933,724,32.23
421948,720,32.55
421963,720,32.55
421978,720,32.55
421993,720,32.55
422008,721,32.87
422023,708,32.87
422038,715,32.87
422053,723,32.55
422068,739,32.23
422084,767,32.87
422099,797,33.52
422114,828,32.87
422129,852,31.90
422144,870,33.52
422159,873,33.19
422174,875,32.87
422189,873,33.19
422204,861,33.19
422219,852,33.19
422234,837,32.23
422249,826,33.52
422265,804,31.26
422280,783,33.19
422295,767,32.87
422310,749,33.19
422325,732,32.87
422340,719,32.55
422355,720,34.16
422370,713,32.87
422385,720,33.19
422400,719,32.87
422415,720,32.55
422430,724,33.52
422445,727,32.55
422460,728,32.55
422475,734,33.19
422490,734,33.84
422505,733,32.55
422520,731,32.87
422535,729,32.87
422550,725,32.55
422565,721,32.87
422580,716,32.87
422595,712,33.19
422610,711,32.87
422625,707,32.23
422640,702,32.55
422655,710,33.19
422670,723,32.87
422685,746,32.87
422700,775,32.23
422715,805,32.87
422730,835,32.87
422745,857,33.19
422760,873,32.87
422775,879,33.52
422790,879,33.19
422805,870,33.19
422820,862,32.55
422835,839,33.52
422850,830,32.87
422865,815,32.55
422880,797,32.87
422895,782,33.19
422910,757,33.52
422925,740,33.52
422940,735,33.19
422955,727,33.52
422970,725,31.90
422985,729,33.52
423000,731,33.19
423015,732,32.87
423030,733,32.55
423045,735,32.55
423060,733,32.55
423075,739,32.87
423090,732,32.87
423105,729,32.23
423120,727,32.87
423135,729,32.87
423150,728,32.55
423165,730,32.55
423180,728,32.55
423195,720,33.19
423210,718,32.87
423225,715,32.23
423240,712,32.87
423255,714,32.55
423270,714,33.19
423285,730,32.55
423300,755,33.19
423315,778,32.87
423330,807,32.23
423345,838,33.52
423360,863,32.87
423375,874,32.87
423391,882,33.19
423406,874,31.90
423421,865,32.87
423436,840,32.23
423451,816,32.87
423466,793,32.55
423482,773,33.84
423498,753,32.55
423513,739,32.87
423529,726,32.87
423544,720,33.52
423560,720,33.52
423576,726,32.55
423591,730,33.19
423607,736,33.19
423623,737,33.84
423638,742,32.23
423654,747,32.23
423669,754,32.87
423685,741,32.55
423701,735,33.19
423716,730,32.23
423732,724,33.19
423748,719,32.87
423764,717,33.19
423780,710,33.19
423796,705,32.87
423812,702,32.87
423828,699,32.87
423844,705,33.19
423859,709,32.87
423875,719,33.19
423891,749,33.52
423907,772,33.19
423923,810,33.52
423938,839,33.52
423954,872,32.87
423970,889,32.55
423986,899,32.87
424002,894,33.19
424018,885,32.23
424034,868,33.84
424049,854,33.19
424065,832,32.55
424080,809,32.55
424096,785,33.19
424112,764,32.87
424127,746,33.52
424143,731,32.87
424159,723,33.52
424174,718,33.19
424190,716,32.87
424205,720,33.19
424221,726,33.19
424237,727,32.23
424252,729,32.87
424268,738,33.52
424284,738,33.19
424299,735,32.55
424315,738,33.19
424330,739,33.19
424346,731,33.19
424362,730,32.55
424377,726,33.19
424393,722,33.19
424408,718,32.55
424424,714,32.23
424440,713,31.90
424455,724,32.87
424471,735,32.55
424486,758,32.23
424501,791,33.19
424516,824,33.19
424532,854,32.87
424547,871,32.87
424562,879,32.87
424577,881,33.52
424592,873,33.19
424607,862,32.87
424622,839,32.87
424637,817,32.55
424652,802,32.55
424667,785,32.55
424682,774,32.55
424697,759,33.19
424713,743,32.23
424728,735,32.23
424743,728,32.87
424758,720,33.19
424773,721,33.19
424788,726,33.19
424803,725,32.23
424818,727,32.23
424833,730,32.87
424848,730,32.55
424863,730,32.23
424878,724,32.55
424893,728,32.87
424908,718,32.55
424923,714,33.19
424938,717,32.23
424953,709,32.87
424968,719,32.87
424983,715,32.55
424998,714,32.55
425013,708,33.19
425028,702,33.19
425043,708,32.23
425058,715,32.55
425073,739,33.19
425088,770,33.52
425103,804,32.87
425118,833,33.52
425133,865,32.55
425148,884,33.19
425163,889,33.52
425178,887,32.23
425193,875,32.55
425208,861,33.84
425223,840,32.87
425238,821,32.55
425253,800,33.19
425268,781,32.87
425283,761,32.87
425298,741,33.52
425313,729,32.55
425328,717,32.55
425343,718,33.19
425358,717,32.87
425373,719,32.87
425388,724,32.23
425403,727,33.52
425418,732,32.23
425433,736,32.55
425448,736,33.84
425463,739,33.19
425478,734,33.52
425493,732,32.87
425508,731,32.55
425523,731,32.23
425538,730,32.87
425553,726,33.52
425568,730,31.90
425583,722,32.87
425598,717,33.19
425613,718,32.87
425628,713,33.19
425643,716,32.55
425658,730,33.52
425673,757,32.87
425688,785,32.87
425703,814,33.52
425718,848,33.19
425733,865,33.52
425748,872,32.87
425763,873,33.19
425778,861,32.87
425793,845,32.87
425808,829,33.19
425823,817,32.55
425838,795,32.55
425853,776,33.52
425868,760,33.52
425883,744,33.19
425898,726,32.55
425913,720,32.23
425928,715,32.55
425943,712,33.52
425958,711,32.87
425973,713,32.87
425988,715,32.87
426003,725,32.87
426018,728,32.55
426033,733,32.23
426048,732,32.23
426063,733,33.19
426078,729,32.87
426093,721,32.23
426108,722,32.87
426123,720,32.87
426138,719,33.19
426153,712,32.55
426168,713,33.19
426183,711,32.87
426198,711,32.87
426213,711,31.90
426228,722,32.23
426243,743,32.87
426258,770,32.87
426273,805,32.55
426288,835,32.87
426303,859,33.52
426318,879,33.19
426333,884,33.52
426348,879,32.23
426363,870,32.87
426378,856,33.19
426393,833,32.55
426408,816,33.19
426423,798,33.19
426438,779,32.23
426453,763,33.19
426468,750,32.87
426483,732,32.23
426498,722,33.19
426513,719,32.23
426528,713,33.52
426543,713,32.55
426558,720,33.19
426573,722,33.52
426588,725,32.55
426603,730,33.19
426618,740,33.19
426633,738,32.55
426648,732,32.87
426663,730,32.55
426678,724,32.55
426693,719,32.87
426708,719,33.19
426723,718,33.52
426738,716,32.55
426753,714,32.87
426768,715,31.58
426783,712,33.19
426798,713,32.55
426813,723,32.55
426828,743,32.23
426843,775,33.19
426858,807,33.19
426873,837,32.87
426888,862,33.52
426903,883,32.87
426918,891,33.52
426933,895,32.87
426948,884,32.55
426963,873,32.87
426978,852,33.19
426993,831,33.19
427008,811,33.52
427023,793,33.19
427038,772,32.87
427053,754,33.19
427068,740,32.55
427083,730,32.87
427098,722,32.87
427113,720,32.87
427128,716,31.90
427143,723,33.19
427158,727,33.19
427173,730,33.19
427188,732,33.19
427203,735,33.19
427218,740,32.87
427233,734,33.84
427248,732,32.87
427263,733,32.87
427278,731,32.23
427293,720,33.19
427308,716,33.19
427323,713,32.55
427338,713,33.52
427353,712,32.87
427368,718,32.55
427383,710,32.23
427398,711,32.55
427413,718,33.19
427428,737,32.55
427443,765,32.87
427458,799,33.52
427473,835,31.58
427488,861,33.19
427503,882,33.19
427518,890,33.84
427533,889,33.19
427548,878,32.87
427563,860,33.52
427578,839,33.19
427593,820,33.19
427608,800,32.87
427623,776,32.23
427638,760,31.90
427653,749,33.19
427668,736,33.19
427683,724,32.55
427698,723,33.19
427713,722,32.87
427728,718,33.19
427743,719,33.19
427758,717,32.55
427773,718,32.55
427788,721,31.90
427803,726,32.87
427818,729,32.55
427833,732,32.23
427848,741,32.87
427863,727,33.52
427878,726,32.23
427893,721,32.55
427908,720,33.52
427923,717,33.52
427938,706,33.84
427953,707,32.23
427968,708,32.87
427983,708,32.87
427998,706,32.23
428013,719,33.19
428028,734,32.23
428043,761,33.19
428058,789,33.19
428073,824,33.52
428088,848,33.19
428103,870,33.52
428118,878,33.19
428133,880,32.55
428148,865,32.87
428163,851,32.87
428178,829,33.52
428193,814,32.87
428208,795,33.52
428223,778,33.19
428238,757,33.52
428253,742,32.87
428268,723,32.87
428283,714,33.19
428298,708,32.23
428313,708,32.55
428328,711,32.55
428343,713,32.55
428358,718,32.87
428373,723,33.52
428388,727,33.52
428403,732,33.19
428418,731,33.19
428433,731,32.23
428448,731,33.52
428463,725,32.55
428478,722,32.55
428493,719,32.87
428508,713,33.19
428523,721,30.94
428538,714,33.19
428553,713,33.52
428568,717,32.87
428583,709,31.90
428598,717,32.87
428613,729,32.87
428628,752,32.87
428643,777,33.52
428658,810,32.55
428673,839,32.23
428688,862,32.87
428703,879,33.19
428718,886,32.87
428733,882,33.52
428748,871,32.55
428763,857,32.87
428778,840,33.52
428793,819,32.87
428808,804,33.19
428823,779,32.87
428838,762,32.87
428853,746,32.87
428868,730,31.90
428883,720,32.87
428898,714,32.87
428913,713,33.52
428928,710,32.87
428943,712,33.52
428958,714,33.19
428973,717,33.19
428988,721,32.87
429003,723,33.84
429018,726,32.23
429033,727,32.87
429048,723,33.52
429063,723,32.87
429078,715,32.87
429093,712,32.87
429108,707,33.19
429123,708,32.55
429138,710,32.55
429153,712,33.19
429168,709,33.84
429183,704,33.19
429198,707,33.19
429213,712,32.55
429228,731,33.19
429243,759,32.55
429258,791,32.87
429273,828,33.19
429288,856,32.87
429303,877,32.87
429318,890,33.19
429333,889,32.55
429348,881,32.87
429363,869,33.19
429378,849,33.52
429393,833,32.87
429408,813,33.19
429423,793,33.19
429438,779,34.16
429453,762,32.87
429468,747,32.87
429483,732,32.23
429498,727,33.19
429513,718,33.19
429528,718,33.19
429543,721,32.55
429558,717,32.87
429573,727,32.23
429588,730,33.52
429603,737,32.87
429618,743,32.87
429633,740,32.87
429648,734,32.87
429663,734,33.19
429678,731,33.19
429693,727,32.87
429708,725,33.19
429723,723,33.19
429738,725,33.52
429753,720,32.23
429768,715,32.55
429783,714,32.23
429798,705,32.87
429813,712,32.55
429828,721,32.87
429843,743,32.23
429858,773,32.55
429873,807,32.87
429888,839,32.55
429903,861,33.52
429918,874,32.55
429933,876,33.52
429948,870,32.87
429963,857,33.19
429978,842,33.52
429993,823,33.19
430008,805,33.19
430023,788,32.55
430038,765,34.80
430053,749,32.23
430068,734,32.23
430083,723,32.87
430098,712,33.19
430113,707,33.52
430128,706,32.55
430143,705,32.55
430158,709,33.19
430173,713,33.19
430188,720,33.52
430203,720,32.23
430218,725,32.87
430233,723,32.23
430248,729,32.55
430263,722,32.87
430278,718,33.19
430293,717,32.55
430308,712,32.55
430323,715,32.55
430338,708,32.87
430353,705,32.23
430368,703,33.19
430383,703,33.52
430398,700,32.87
430413,702,33.19
430428,712,32.23
430443,732,33.19
430458,761,33.52
430473,797,32.87
430488,829,33.19
430503,855,33.19
430518,871,33.19
430533,876,33.19
430548,872,32.87
430563,859,32.87
430578,843,33.52
430593,828,31.90
430608,815,33.19
430623,795,33.19
430638,775,33.52
430653,761,33.52
430668,744,33.19
430683,732,32.87
430698,721,32.87
430713,717,32.87
430728,715,33.52
430743,719,33.19
430758,728,32.55
430773,733,32.87
430788,737,32.87
430803,735,32.87
430818,743,32.87
430833,734,32.55
430848,730,33.19
430863,725,33.19
430878,720,33.19
430893,719,32.87
430908,719,32.87
430923,717,32.87
430938,715,33.19
430953,714,32.55
430968,712,33.19
430983,711,33.19
430998,711,32.87
431013,713,33.19
431028,721,33.19
431043,736,31.90
431058,761,32.23
431073,793,32.55
431088,828,32.55
431103,856,32.23
431118,871,33.52
431133,876,32.87
431148,873,33.84
431163,862,33.52
431178,851,32.55
431193,840,33.19
431208,824,33.52
431223,807,32.55
431238,788,33.52
431253,770,32.55
431268,752,33.19
431283,737,32.23
431298,728,32.23
431313,722,32.87
431328,718,32.87
431343,721,32.55
431358,727,31.90
431373,730,33.52
431388,733,32.87
431403,732,32.55
431418,730,32.23
431433,731,33.52
431448,727,33.19
431463,725,32.55
431478,723,32.55
431493,722,32.23
431508,721,33.19
431523,723,32.55
431538,722,32.87
431553,723,32.87
431568,720,33.52
431583,718,32.23
431598,713,32.55
431613,710,31.90
431628,714,33.19
431643,725,32.55
431658,744,33.19
431673,777,32.87
431688,812,33.19
431703,842,31.90
431718,859,33.19
431733,874,32.55
431748,878,33.52
431763,872,31.90
431778,861,32.87
431793,845,32.87
431808,829,33.52
431823,812,33.52
431838,796,33.19
431853,777,33.19
431868,759,33.52
431883,743,33.19
431898,733,33.52
431913,722,32.87
431928,713,32.55
431943,718,32.87
431958,725,32.55
431973,732,33.52
431988,735,32.87
432003,737,32.23
432018,740,32.87
432033,742,32.87
432048,738,32.87
432063,735,32.55
432078,728,32.87
432093,727,31.90
432108,726,31.90
432123,722,33.19
432138,721,32.87
432153,719,32.55
432168,718,32.87
432183,716,32.55
432198,713,32.55
432213,712,32.87
432228,720,33.19
432243,728,32.87
432258,756,32.55
432273,783,33.84
432288,812,33.19
432303,832,33.19
432318,851,33.19
432333,865,32.87
432348,867,32.55
432363,866,32.87
432378,859,32.55
432393,852,33.19
432408,837,33.52
432423,824,32.87
432438,806,32.55
432453,783,33.19
432468,762,32.55
432483,741,32.55
432498,726,32.87
432513,717,33.19
432528,715,33.19
432543,718,31.90
432558,725,33.19
432573,730,33.52
432588,733,33.52
432603,736,32.87
432618,736,33.19
432633,734,33.19
432648,732,33.19
432663,727,32.55
432678,725,32.87
432693,724,33.52
432708,724,33.19
432723,723,32.55
432738,724,32.55
432753,720,33.19
432768,720,32.23
432783,717,32.23
432798,712,32.23
432813,714,32.55
432828,724,33.52
432843,742,32.55
432858,767,33.52
432873,805,31.90
432888,837,32.55
432903,869,33.52
432918,886,31.90
432933,895,33.19
432948,897,33.19
432963,890,33.52
432978,876,32.87
432993,862,32.87
433008,846,32.55
433023,825,33.19
433038,804,32.23
433053,784,32.87
433068,761,32.87
433083,741,33.19
433098,727,32.87
433113,721,33.19
433128,717,31.90
433143,720,33.19
433158,725,32.23
433173,726,34.16
433188,735,32.87
433203,735,33.19
433218,739,32.87
433233,733,33.19
433248,734,31.90
433263,735,32.55
433278,734,32.87
433293,732,33.19
433308,731,33.19
433323,727,33.84
433338,730,32.87
433353,728,33.52
433368,729,33.19
433383,723,32.87
433398,715,32.55
433413,709,32.23
433428,715,33.52
433443,725,32.87
433458,749,32.23
433473,781,33.19
433488,821,33.52
433503,851,33.19
433518,870,32.55
433533,887,33.52
433548,882,33.19
433563,885,32.87
433578,878,32.55
433593,867,33.19
433608,854,33.52
433623,837,32.87
433638,823,33.19
433653,799,32.55
433668,779,33.52
433683,754,32.87
433698,739,33.19
433713,724,33.19
433728,718,33.52
433743,721,31.90
433758,727,32.87
433773,728,32.55
433788,731,32.23
433803,734,32.55
433818,734,33.19
433833,741,33.52
433848,738,32.55
433863,742,32.87
433878,737,32.87
433893,737,33.52
433908,739,33.19
433923,730,32.55
433938,730,33.84
433953,727,32.87
433968,722,33.84
433983,721,32.87
433998,713,32.87
434013,711,32.23
434028,710,32.87
434043,717,33.19
434058,734,32.23
434073,764,33.19
434088,798,33.19
434103,831,32.55
434119,856,33.19
434134,871,31.58
434149,878,33.19
434164,876,33.19
434179,870,33.19
434194,858,33.19
434210,839,32.55
434225,825,32.55
434240,806,33.19
434255,788,32.87
434270,769,33.19
434285,752,32.87
434301,736,33.19
434317,724,32.23
434332,720,33.52
434348,717,32.55
434363,719,32.87
434379,721,33.19
434395,724,33.84
434410,731,33.19
434426,729,32.55
434442,732,33.52
434457,733,33.19
434473,735,32.87
434488,735,32.87
434504,734,32.23
434520,730,32.87
434535,730,32.55
434551,728,33.19
434567,723,33.84
434583,720,32.55
434599,715,32.87
434615,712,32.87
434631,716,32.23
434647,719,33.19
434663,738,31.90
434679,776,32.87
434695,809,32.87
434711,843,32.23
434727,876,33.52
434743,887,33.19
434759,891,33.19
434775,888,32.87
434791,881,32.87
434807,871,33.52
434823,846,32.23
434839,829,33.52
434855,815,32.87
434871,783,32.55
434887,764,32.55
434903,741,33.19
434919,728,32.55
434935,720,32.87
434951,712,33.19
434967,721,33.19
434983,723,33.19
434999,722,32.55
435015,726,32.55
435031,729,32.87
435047,731,32.55
435062,734,32.55
435078,736,32.87
435094,736,33.52
435109,736,32.23
435125,723,33.19
435140,721,32.87
435156,720,33.19
435171,721,32.87
435187,716,32.87
435203,714,33.52
435218,708,32.55
435234,707,32.87
435250,712,33.19
435265,726,33.19
435281,753,32.55
435296,784,32.87
435312,822,32.87
435328,853,33.19
435343,880,33.19
435359,892,33.19
435374,893,32.87
435390,887,34.48
435406,870,32.87
435421,860,33.84
435437,842,32.23
435452,815,32.55
435467,797,32.87
435482,771,33.19
435497,748,32.55
435512,736,32.55
435528,720,32.87
435543,722,33.52
435558,720,33.19
435573,725,32.87
435588,726,32.55
435603,726,32.87
435618,729,32.87
435633,729,33.19
435648,727,32.87
435663,732,33.19
435678,733,33.19
435693,732,32.87
435709,729,33.52
435724,733,33.19
435739,733,32.55
435754,731,33.19
435769,723,33.52
435784,716,32.55
435799,713,33.19
435814,713,33.19
435829,704,31.90
435844,704,33.84
435859,718,33.52
435874,729,32.87
435889,757,33.19
435904,787,32.87
435919,818,32.55
435934,841,33.52
435949,860,33.19
435964,860,33.52
435979,868,32.87
435994,859,32.23
436009,850,32.87
436024,839,32.23
436039,821,32.55
436054,804,32.87
436069,779,31.90
436084,763,33.19
436099,738,33.52
436114,724,32.87
436129,718,32.23
436144,716,32.23
436159,718,32.87
436174,722,33.52
436189,720,33.52
436204,726,33.19
436219,730,33.19
436234,730,33.19
436249,724,32.87
436264,731,33.84
436279,732,32.87
436294,727,32.55
436309,728,32.55
436324,728,33.19
436339,725,32.87
436354,724,33.19
436369,719,32.87
436384,714,33.52
436399,713,33.19
436414,705,32.55
436429,701,32.87
436444,704,32.55
436459,713,32.23
436474,737,33.52
436489,765,32.87
436504,796,32.23
436519,831,33.52
436534,851,33.19
436550,872,33.19
436565,876,32.87
436580,875,33.19
436595,867,32.87
436610,857,32.55
436625,841,32.55
436641,825,32.23
436656,807,33.19
436671,783,32.55
436686,764,32.87
436701,740,33.19
436716,726,32.87
436732,712,32.23
436748,716,33.19
436763,718,32.55
436779,724,32.23
436794,726,32.55
436810,732,32.87
436826,729,32.87
436841,735,33.52
436857,735,32.55
436873,733,32.55
436888,742,32.87
436904,735,32.87
436919,724,32.55
436935,719,33.52
436951,714,33.52
436966,713,32.87
436982,715,32.55
436998,711,32.55
437013,708,32.55
437029,706,32.87
437044,706,31.90
437060,718,33.19
437076,739,33.19
437092,772,32.55
437108,804,32.87
437124,840,32.87
437139,859,32.87
437155,877,33.19
437171,884,33.84
437187,882,32.55
437203,870,33.52
437219,862,33.19
437235,844,32.55
437251,823,32.55
437267,802,32.55
437283,777,32.23
437299,757,32.23
437315,735,32.55
437331,723,33.19
437346,720,32.55
437362,715,32.87
437378,718,32.55
437394,718,33.52
437410,724,31.90
437426,730,33.19
437441,734,32.55
437457,738,32.23
437472,740,31.90
437488,743,33.19
437504,739,32.87
437519,730,33.52
437535,721,32.55
437551,721,32.55
437566,721,32.87
437582,718,33.19
437597,713,32.87
437613,711,32.87
437629,706,33.19
437644,707,31.58
437660,718,33.19
437676,738,32.87
437691,770,33.52
437706,801,33.19
437721,829,33.19
437736,854,32.87
437752,869,33.19
437768,876,32.23
437783,870,31.90
437799,861,33.19
437814,849,33.52
437829,833,32.55
437844,817,33.19
437859,808,33.19
437874,786,32.55
437890,766,32.87
437905,748,32.23
437920,734,31.90
437935,723,33.52
437950,719,33.19
437965,719,32.87
437980,714,32.87
437995,722,32.87
438010,727,33.52
438025,731,32.87
438040,733,32.55
438055,736,33.19
438071,734,33.52
438086,736,32.55
438101,732,33.19
438116,728,31.58
438131,726,33.52
438146,720,33.19
438161,717,32.87
438176,716,32.23
438191,721,33.19
438206,713,33.52
438221,714,33.52
438236,714,33.19
438252,724,33.19
438267,747,32.55
438282,772,33.52
438297,796,32.55
438312,826,33.19
438327,853,33.19
438342,870,32.55
438357,876,33.52
438372,875,32.55
438387,869,32.87
438402,853,32.87
438417,837,33.19
438432,819,33.19
438447,801,32.55
438462,779,32.55
438477,764,32.87
438492,745,32.87
438507,730,32.87
438522,716,32.23
438537,720,32.87
438552,716,32.87
438567,716,32.87
438582,714,32.87
438597,718,32.23
438612,727,32.55
438627,730,33.19
438642,733,32.23
438657,737,33.19
438672,735,32.23
438687,734,32.87
438702,731,32.23
438717,724,32.87
438732,724,33.19
438747,721,32.87
438762,719,33.19
438777,720,32.55
438792,720,33.19
438807,714,33.52
438822,716,32.87
438837,719,32.55
438852,735,33.19
438867,761,32.55
438882,790,32.55
438897,823,31.90
438912,850,32.55
438927,870,31.90
438942,883,32.23
438957,890,33.52
438972,889,33.52
438987,876,33.19
439002,864,34.16
439017,843,33.19
439033,824,32.55
439048,802,33.52
439063,785,34.80
439078,763,32.55
439093,746,32.87
439108,732,32.87
439124,718,33.19
439139,724,32.23
439155,721,32.23
439171,725,32.87
439186,726,32.87
439202,730,32.55
439218,734,32.23
439233,737,33.52
439249,736,32.55
439264,738,32.87
439280,735,33.19
439296,733,32.87
439311,731,33.19
439327,731,33.52
439343,735,33.52
439359,728,32.55
439375,728,33.19
439391,722,32.55
439406,716,32.23
439422,715,33.52
439438,723,33.52
439453,742,32.23
439469,770,31.58
439485,807,32.87
439501,834,33.52
439517,860,33.52
439533,876,32.87
439549,881,33.52
439565,884,33.52
439581,870,32.55
439597,850,32.23
439613,833,32.87
439629,822,33.19
439645,797,33.19
439661,779,33.19
439677,759,33.52
439693,742,33.52
439708,731,32.23
439724,728,32.87
439740,726,32.87
439756,727,32.87
439772,730,32.87
439788,728,32.55
439803,727,32.87
439819,732,33.52
439835,731,33.19
439851,734,33.52
439867,734,33.52
439883,731,31.90
439898,724,32.55
439914,720,32.87
439929,713,31.90
439945,714,32.87
439961,710,32.87
439976,713,32.87
439992,707,32.55
440008,712,32.87
440023,717,32.55
440039,732,32.55
440054,759,33.52
440070,790,32.87
440086,822,33.19
440101,846,33.52
440117,866,33.84
440132,875,32.87
440148,875,32.87
440164,870,32.87
440179,859,32.23
440195,846,32.87
440210,832,32.87
440226,812,32.87
440242,791,32.87
440257,771,32.87
440273,749,32.87
440288,731,32.23
440303,722,32.87
440318,714,33.52
440334,712,33.19
440350,716,33.19
440365,717,33.19
440381,719,32.87
440396,720,32.87
440411,725,32.87
440426,732,33.19
440441,738,32.55
440456,740,32.87
440471,740,32.87
440486,730,32.87
440502,725,33.19
440517,719,33.52
440532,718,32.87
440547,717,32.87
440562,714,33.19
440577,714,33.84
440592,712,32.87
440607,705,32.87
440622,710,32.55
440637,720,32.23
440652,741,32.23
440667,772,33.84
440682,814,33.19
440697,845,33.19
440712,871,33.52
440727,893,32.87
440742,903,33.19
440757,906,34.16
440772,884,32.55
440787,877,33.19
440802,857,33.19
440817,835,33.52
440832,811,33.19
440847,789,32.87
440862,768,32.23
440877,748,32.55
440892,733,33.52
440907,723,33.19
440922,720,33.19
440937,717,32.87
440952,712,32.55
440967,715,32.87
440982,715,32.87
440997,722,33.19
441012,726,33.19
441027,730,32.55
441042,739,32.87
441057,736,32.23
441072,733,34.16
441087,729,32.55
441102,728,33.19
441117,724,33.19
441132,719,33.19
441147,720,32.55
441162,721,32.23
441177,721,33.19
441192,715,33.19
441207,713,33.52
441222,708,33.19
441237,709,33.52
441252,721,31.90
441267,748,33.19
441282,790,32.55
441297,819,32.55
441312,856,33.19
441327,878,33.19
441342,891,32.23
441357,894,33.19
441372,890,32.55
441387,880,33.52
441402,862,32.55
441417,846,33.52
