=~=~=~=~=~=~=~=~=~=~=~= PuTTY log 2023.06.05 19:59:35 =~=~=~=~=~=~=~=~=~=~=~=
531218,514,33.19
531234,531,32.55
531250,532,34.16
531266,544,32.23
531281,547,32.23
531297,542,33.84
531313,541,32.23
531328,535,32.55
531344,526,33.84
531360,512,34.80
531375,511,33.52
531391,502,33.84
531406,501,32.87
531422,496,33.19
531438,486,33.52
531454,493,32.87
531470,492,32.23
531486,498,31.26
531502,500,32.55
531518,495,33.52
531534,503,33.84
531550,498,33.84
531566,504,33.84
531582,503,33.84
531598,503,33.52
531613,501,34.48
531629,499,33.84
531645,502,31.90
531661,502,33.84
531677,501,31.90
531693,495,33.52
531709,500,33.84
531725,499,33.52
531741,494,30.94
531757,493,33.84
531773,490,33.52
531789,500,33.52
531805,498,33.84
531821,499,33.84
531837,506,33.84
531853,522,33.84
531869,533,33.19
531885,539,33.52
531901,546,32.87
531917,545,34.16
531933,545,33.52
531949,540,34.16
531965,529,33.19
531980,526,33.52
531996,520,32.55
532011,513,33.19
532027,505,33.84
532043,505,32.23
532058,501,31.90
532074,500,33.52
532090,493,33.84
532105,499,32.23
532121,504,32.55
532136,497,33.19
532152,512,32.55
532168,501,33.84
532183,505,33.52
532199,501,33.84
532214,505,33.52
532230,509,32.55
532245,507,32.23
532260,509,34.16
532276,510,33.52
532291,505,33.84
532307,505,32.55
532322,495,34.16
532338,501,33.52
532353,501,32.55
532368,497,33.84
532383,493,33.19
532398,500,33.52
532413,500,33.19
532428,502,33.52
532443,501,33.84
532458,514,34.16
532473,515,33.84
532489,531,32.55
532504,540,33.19
532519,545,32.23
532534,547,33.52
532549,546,33.19
532564,547,32.23
532579,550,32.23
532594,533,33.52
532609,534,31.58
532624,531,32.87
532640,517,31.90
532655,509,34.16
532670,507,32.23
532685,499,33.52
532700,500,32.55
532715,492,33.52
532730,498,33.19
532745,499,34.48
532760,500,34.16
532775,509,37.38
532790,508,33.52
532805,511,33.84
532820,513,33.84
532835,504,33.19
532850,515,33.19
532865,510,33.19
532880,507,33.52
532895,509,33.84
532910,511,32.55
532925,508,33.52
532940,507,34.16
532955,508,32.23
532970,504,33.84
532985,496,33.52
533000,494,33.84
533015,501,33.52
533030,502,33.52
533045,500,33.52
533060,498,33.52
533075,507,33.52
533090,511,33.19
533105,510,33.84
533120,518,34.16
533135,521,33.52
533150,539,33.84
533165,539,33.52
533180,551,32.23
533195,552,32.55
533210,545,31.58
533225,540,33.19
533240,529,33.52
533255,523,33.52
533270,507,33.84
533285,500,33.84
533300,504,31.90
533315,492,33.84
533330,497,32.55
533345,490,33.52
533360,500,30.29
533375,501,33.84
533390,505,32.55
533405,507,34.16
533421,509,33.19
533436,504,33.52
533451,501,33.52
533466,507,32.87
533481,506,33.52
533496,500,33.84
533512,502,33.52
533528,506,32.55
533543,497,33.52
533559,503,34.16
533574,503,33.84
533590,500,31.58
533606,498,33.84
533621,500,33.84
533637,500,33.84
533653,491,33.19
533668,491,33.19
533684,498,33.52
533699,501,33.84
533715,503,32.23
533731,513,33.19
533747,520,32.55
533763,523,33.52
533779,538,33.84
533795,538,33.52
533810,541,33.84
533826,543,33.84
533842,532,33.84
533858,533,33.19
533874,522,33.84
533890,516,33.19
533906,502,33.84
533922,502,33.52
533938,488,33.84
533954,490,33.84
533970,491,33.52
533986,487,33.19
534001,496,32.87
534017,496,34.80
534033,495,33.84
534049,504,32.23
534065,505,33.84
534081,509,33.52
534097,500,34.80
534113,507,31.90
534129,505,33.84
534145,505,32.23
534161,503,33.52
534177,503,32.23
534193,503,32.23
534208,494,33.19
534224,499,32.55
534240,492,33.52
534256,490,33.52
534272,491,33.84
534288,495,33.84
534303,494,33.52
534319,501,32.87
534334,501,33.52
534350,510,34.16
534366,525,32.55
534381,536,33.19
534397,544,33.84
534412,544,33.84
534428,547,33.52
534444,542,33.52
534459,544,33.52
534475,542,33.19
534491,533,33.84
534506,524,33.52
534522,516,33.19
534537,510,33.84
534553,503,32.87
534568,502,32.23
534583,499,33.84
534598,495,33.19
534614,502,31.90
534630,504,33.84
534645,508,34.16
534661,505,33.84
534676,509,33.84
534691,512,34.16
534706,520,33.52
534721,522,32.23
534736,513,33.84
534752,519,33.19
534767,517,32.55
534782,516,31.90
534797,509,33.84
534812,513,31.90
534827,508,33.84
534842,505,34.16
534857,508,33.19
534872,502,33.52
534887,506,33.52
534902,495,32.87
534917,503,31.90
534933,510,32.55
534948,513,34.16
534963,516,33.52
534978,534,32.55
534993,544,32.55
535008,553,33.84
535023,553,33.84
535038,554,33.84
535053,551,33.84
535068,549,33.84
535083,538,33.84
535098,525,33.52
535113,522,32.87
535128,522,32.55
535143,514,32.23
535158,509,33.52
535173,504,33.52
535188,496,33.19
535203,497,31.90
535218,493,33.19
535233,498,33.84
535248,502,32.23
535263,497,33.84
535278,512,33.52
535293,506,33.19
535308,512,33.52
535323,508,33.52
535338,511,33.52
535353,510,33.84
535368,499,33.19
535383,500,33.84
535398,504,33.52
535413,505,33.84
535428,502,33.52
535443,502,32.23
535458,504,32.87
535473,497,33.52
535488,498,33.52
535503,500,33.84
535518,496,34.16
535533,498,34.16
535548,504,33.84
535563,512,33.84
535578,510,33.19
535593,531,33.52
535608,541,32.55
535623,542,34.16
535638,549,33.52
535653,543,34.16
535668,542,33.84
535683,542,32.55
535698,531,33.52
535713,528,33.19
535728,517,33.84
535744,516,33.84
535759,514,33.52
535774,506,33.84
535789,503,32.23
535804,495,34.16
535819,496,32.23
535835,492,33.84
535850,495,33.84
535865,500,33.84
535880,503,33.84
535895,505,31.58
535910,509,32.55
535926,498,32.87
535942,506,33.84
535957,503,31.90
535973,502,33.84
535988,494,33.84
536004,498,33.52
536020,499,33.84
536035,497,33.52
536051,497,33.52
536067,499,32.87
536082,498,31.90
536098,499,32.23
536113,496,33.84
536129,499,34.16
536145,510,33.19
536160,511,33.84
536176,522,33.52
536192,540,33.84
536208,547,33.52
536224,552,33.84
536240,555,32.23
536256,549,32.55
536272,540,34.16
536288,535,33.84
536304,525,33.84
536320,511,33.52
536336,511,32.87
536352,497,33.52
536368,499,33.52
536384,496,33.84
536400,486,33.84
536416,494,34.16
536432,496,34.16
536448,501,33.52
536464,493,32.87
536480,506,32.23
536496,510,32.23
536512,512,33.84
536528,507,33.52
536544,501,34.16
536560,510,32.55
536575,507,32.55
536591,508,34.16
536607,501,34.16
536623,499,33.84
536639,499,33.19
536655,500,32.23
536670,497,32.87
536686,490,33.52
536702,496,31.90
536717,504,33.52
536733,507,33.52
536749,517,33.52
536765,537,32.23
536781,547,33.84
536797,552,33.19
536812,552,33.84
536828,562,33.84
536843,556,32.23
536859,544,33.84
536875,544,32.87
536890,529,33.52
536906,520,34.16
536922,517,32.87
536937,504,33.52
536953,507,33.84
536968,504,33.19
536984,501,33.52
536999,501,33.52
537015,506,34.16
537031,507,34.16
537046,511,33.52
537062,508,33.52
537077,508,33.84
537092,518,32.55
537108,518,32.23
537123,517,33.84
537139,513,33.84
537154,511,33.84
537170,513,32.23
537185,505,32.23
537200,502,33.52
537215,501,32.23
537230,493,33.19
537245,497,32.55
537260,492,33.52
537275,499,33.52
537290,505,32.55
537305,514,33.84
537320,520,33.52
537335,536,33.84
537350,541,33.52
537365,554,33.52
537381,561,33.84
537396,556,34.16
537411,559,32.87
537426,552,32.87
537441,545,33.84
537456,531,33.84
537471,530,34.16
537486,524,31.90
537501,513,33.84
537516,505,33.52
537531,502,34.80
537546,499,34.16
537561,487,33.52
537576,495,32.23
537591,497,33.19
537606,499,33.52
537621,502,31.58
537636,504,33.84
537651,506,32.55
537666,504,31.90
537681,497,33.84
537696,506,33.52
537711,501,33.52
537726,505,34.16
537741,506,33.52
537756,515,31.90
537771,516,31.90
537786,512,33.19
537801,511,32.23
537816,508,32.55
537831,504,32.23
537846,495,33.52
537861,504,34.16
537876,509,33.52
537891,521,33.84
537906,527,33.84
537921,542,33.52
537936,554,32.23
537951,560,33.52
537966,559,34.16
537981,558,33.19
537996,555,31.90
538011,541,33.52
538026,538,34.16
538041,526,33.19
538056,521,33.84
538071,517,33.84
538086,508,33.84
538101,503,31.90
538116,495,34.16
538131,497,33.84
538146,491,33.52
538161,502,33.84
538176,506,33.52
538191,507,33.52
538206,511,33.84
538221,506,33.52
538236,514,33.52
538251,517,32.87
538266,516,32.55
538281,515,33.19
538296,520,33.84
538311,513,33.84
538326,515,33.52
538341,508,33.19
538356,505,33.52
538371,494,33.52
538386,492,34.16
538401,487,33.84
538416,492,31.26
538431,497,33.84
538446,498,33.52
538461,503,33.19
538476,516,32.87
538491,528,32.23
538506,537,33.84
538521,545,34.16
538536,546,32.87
538551,549,34.16
538566,549,34.16
538581,548,34.48
538596,552,32.23
538611,544,32.87
538626,534,33.84
538641,524,33.19
538656,519,32.87
538671,506,32.87
538686,500,32.55
538701,492,34.16
538716,483,33.19
538731,482,33.84
538746,483,32.87
538761,478,33.84
538776,482,33.84
538791,494,33.52
538806,500,33.84
538821,504,33.19
538836,505,34.16
538851,503,33.52
538866,508,34.16
538881,502,33.52
538896,508,33.52
538911,510,32.23
538926,507,31.90
538941,508,33.19
538956,506,33.84
538971,506,32.87
538986,506,33.19
539001,497,34.16
539016,503,33.52
539031,509,32.55
539046,516,32.87
539061,524,32.55
539076,534,34.16
539091,545,32.55
539106,548,33.84
539121,561,32.55
539136,549,33.19
539151,547,34.16
539166,539,33.52
539181,527,33.84
539196,518,33.84
539211,519,32.55
539226,512,33.19
539241,508,33.19
539256,504,32.23
539271,504,32.87
539286,493,33.52
539301,490,33.52
539316,497,33.19
539331,494,34.16
539346,496,33.52
539361,505,33.84
539376,503,33.52
539391,507,31.90
539406,509,31.90
539421,508,33.84
539436,507,32.87
539451,501,33.52
539466,503,33.84
539481,501,32.23
539497,500,32.55
539512,500,33.84
539527,501,32.55
539542,503,32.55
539557,503,34.16
539572,502,33.84
539588,504,33.52
539603,499,33.52
539618,510,31.90
539633,518,32.23
539648,521,33.52
539663,533,33.84
539678,552,34.48
539693,553,33.52
539708,560,33.19
539723,552,33.84
539739,550,33.52
539754,550,32.55
539769,539,31.90
539784,530,32.55
539799,520,32.55
539814,506,33.84
539829,497,33.84
539844,500,33.19
539859,492,33.52
539874,491,32.87
539889,490,33.84
539904,493,34.16
539919,503,34.16
539934,505,32.87
539949,496,33.52
539964,506,33.19
539979,499,33.52
539994,499,33.52
540009,503,32.55
540024,497,34.16
540039,498,33.84
540054,504,32.55
540069,497,33.84
540084,491,33.84
540099,489,34.16
540114,486,33.52
540129,491,33.84
540144,491,34.16
540159,494,33.19
540174,490,33.84
540189,496,32.23
540204,504,34.48
540219,508,33.19
540234,514,34.48
540249,525,33.84
540264,534,33.19
540279,542,32.23
540294,540,33.52
540309,538,34.16
540324,542,32.23
540339,538,32.87
540354,532,32.55
540369,518,33.84
540384,513,34.16
540399,500,33.19
540414,500,33.52
540429,498,32.23
540444,488,33.52
540459,493,34.16
540474,493,32.55
540489,493,33.52
540504,495,33.52
540519,490,33.84
540534,495,32.55
540549,496,34.16
540564,493,33.19
540579,502,32.87
540594,499,33.84
540609,503,32.23
540624,507,32.55
540639,498,33.19
540654,502,34.16
540669,494,33.52
540684,499,33.84
540699,495,33.19
540714,488,33.52
540729,490,34.16
540744,493,32.87
540759,486,33.84
540774,487,33.52
540789,490,33.52
540804,506,33.19
540819,506,33.84
540834,521,33.52
540849,530,31.90
540864,534,33.52
540879,542,33.52
540894,543,33.52
540909,547,33.52
540924,544,33.84
540939,538,31.90
540954,529,33.19
540969,520,32.23
540984,507,33.19
540999,497,33.52
541014,493,33.52
541029,482,33.52
541044,487,32.55
541059,481,33.52
541074,488,33.19
541089,488,33.84
541104,490,33.52
541119,498,34.16
541134,500,33.84
541149,507,32.55
541164,507,32.55
541179,505,34.16
541194,505,33.52
541209,501,34.16
541224,503,33.52
541239,506,32.23
541254,495,34.16
541269,508,33.52
541284,499,33.19
541299,498,32.23
541314,490,34.16
541329,491,33.52
541344,494,32.87
541359,495,31.90
541374,498,32.23
541389,509,33.84
541404,516,33.84
541419,531,33.84
541434,533,33.84
541449,543,33.19
541464,553,32.23
541479,552,32.87
541494,544,33.84
541509,545,31.90
541524,532,33.52
541539,529,32.87
541554,518,33.52
541569,504,33.19
541584,496,33.84
541599,489,33.19
541614,493,31.90
541629,485,32.55
541645,489,33.52
541660,489,32.23
541675,496,31.90
541690,490,32.23
541705,502,32.23
541720,502,32.55
541735,504,32.23
541750,506,34.16
541766,505,33.84
541781,495,33.52
541796,501,33.19
541811,491,33.19
541826,497,32.23
541841,497,32.55
541857,496,32.23
541873,495,33.52
541888,496,33.52
541904,496,32.23
541919,495,32.87
541935,496,33.52
541951,492,33.52
541966,509,33.19
541982,524,32.55
541998,536,31.90
542013,545,33.84
542029,554,33.52
542044,548,33.19
542060,555,32.55
542076,549,34.16
542091,542,32.23
542107,535,32.87
542123,523,34.16
542139,516,33.84
542155,503,34.16
542171,496,34.16
542187,494,32.55
542203,491,32.23
542219,490,33.52
542235,492,33.84
542251,491,33.52
542267,498,33.52
542282,501,31.90
542298,505,31.90
542314,500,33.84
542329,508,32.55
542345,508,32.55
542360,507,33.19
542376,502,33.19
542392,501,33.84
542408,495,33.52
542424,502,32.23
542440,493,33.52
542456,489,33.19
542471,494,34.48
542487,501,32.23
542502,498,32.87
542518,503,33.84
542534,511,33.52
542549,518,34.16
542565,537,32.55
542580,545,32.55
542596,548,33.84
542611,553,33.84
542627,558,33.52
542643,548,33.84
542658,545,33.84
542674,536,32.23
542689,530,33.19
542704,512,33.84
542720,512,32.23
542735,503,33.84
542751,496,32.23
542766,492,33.84
542782,479,33.84
542798,484,33.19
542813,494,32.55
542829,495,33.52
542844,493,33.19
542859,502,34.16
542874,500,33.84
542890,505,33.84
542905,503,33.19
542920,511,33.84
542935,502,33.19
542950,507,31.26
542965,497,33.52
542980,493,33.52
542995,497,34.16
543010,496,33.52
543025,500,32.87
543040,489,33.84
543055,501,33.52
543071,501,33.19
543086,498,33.84
543101,503,33.52
543116,507,33.84
543131,516,32.87
543146,532,33.84
543161,536,33.19
543176,544,33.84
543191,560,32.23
543206,562,33.84
543221,555,33.52
543236,555,32.23
543251,540,33.84
543266,536,32.87
543281,518,33.84
543296,516,32.55
543311,499,33.52
543326,498,33.52
543341,490,33.19
543356,485,33.19
543371,490,32.87
543386,493,31.90
543401,496,32.23
543416,500,32.23
543431,497,33.84
543446,496,33.84
543461,496,33.19
543476,507,33.19
543491,508,32.55
543506,504,30.62
543521,500,33.52
543536,506,32.55
543551,506,33.52
543566,502,32.55
543581,504,32.23
543596,501,32.87
543611,498,34.16
543626,497,32.55
543641,500,34.16
543656,500,32.55
543671,500,32.87
543686,501,31.58
543701,507,33.84
543716,506,34.16
543731,523,32.23
543746,533,33.19
543761,536,33.19
543776,550,34.48
543791,546,33.84
543806,549,34.16
543821,546,34.16
543836,534,34.16
543851,531,34.16
543866,513,33.19
543881,504,33.52
543896,496,33.52
543912,492,34.16
543927,488,33.84
543942,489,32.55
543957,489,31.90
543973,487,33.84
543988,493,34.16
544003,495,33.52
544018,502,32.55
544033,503,32.55
544048,496,33.84
544063,499,33.52
544078,506,32.23
544093,506,32.23
544108,498,33.84
544123,507,32.23
544138,495,33.52
544153,500,31.58
544168,499,33.84
544183,498,33.84
544198,486,33.52
544214,495,33.84
544229,494,32.55
544244,489,33.84
544259,492,32.55
544275,492,33.84
544291,494,33.52
544306,515,31.58
544322,522,34.16
544337,532,33.19
544352,540,33.84
544367,552,33.52
544383,547,33.52
544399,550,33.84
544414,541,33.84
544430,529,33.52
544446,517,32.55
544462,503,33.84
544478,496,33.84
544494,494,32.23
544509,482,33.84
544525,478,33.84
544541,488,33.52
544556,489,32.23
544572,488,34.16
544587,499,32.87
544603,501,32.23
544619,506,32.23
544635,506,33.52
544651,517,33.84
544667,506,33.52
544682,504,33.52
544698,504,31.90
544714,503,32.55
544730,499,33.19
544746,492,33.84
544762,486,33.19
544777,494,32.23
544793,494,32.23
544809,492,33.84
544825,488,33.19
544841,495,32.55
544857,501,33.52
544872,501,33.19
544888,517,31.58
544904,530,33.84
544920,539,33.52
544936,555,31.58
544952,550,33.52
544967,558,33.84
544983,549,34.16
544999,537,33.84
545015,536,32.55
545031,524,32.55
545047,506,33.52
545062,505,32.55
545078,492,33.52
545093,494,33.84
545109,491,33.52
545125,489,32.55
545140,494,32.87
545156,498,33.19
545171,494,33.84
545187,498,33.19
545203,510,32.23
545218,507,33.19
545234,515,33.84
545249,516,33.19
545265,517,32.87
545281,506,33.52
545296,507,33.84
545312,508,31.90
545328,503,33.19
545343,494,33.52
545359,498,33.84
545374,497,33.84
545390,500,33.19
545405,496,33.52
545420,497,33.84
545435,493,33.84
545450,502,33.84
545465,512,34.48
545480,515,33.19
545495,530,33.52
545510,538,33.19
545525,557,31.90
545540,553,33.84
545555,559,31.58
545571,548,33.19
545586,538,33.84
545601,537,33.19
545616,528,33.84
545631,517,33.52
545646,500,34.16
545661,504,33.84
545676,497,33.84
545691,494,33.84
545706,497,33.52
545721,496,33.84
545736,497,31.90
545751,501,31.90
545766,497,33.84
545781,506,32.87
545796,499,34.16
545811,510,33.52
545826,512,32.23
545841,512,33.84
545856,509,33.19
545871,507,33.52
545886,513,32.55
545901,501,33.52
545916,501,33.52
545931,497,33.52
545946,495,33.52
545961,495,33.84
545976,498,33.84
545991,500,32.55
546006,498,34.16
546021,502,33.84
546036,506,32.23
546051,518,33.84
546066,524,32.55
546081,527,33.52
546096,545,31.90
546111,551,33.84
546126,556,32.55
546141,559,32.87
546156,556,33.84
546171,547,33.84
546186,551,32.23
546201,534,33.52
546216,526,33.19
546231,517,32.87
546246,509,32.87
546261,502,31.58
546276,494,33.52
546291,490,34.16
546306,488,33.84
546321,496,33.19
546336,491,33.52
546351,499,32.87
546366,508,33.19
546381,507,33.84
546396,510,33.52
546412,512,33.84
546427,507,33.52
546442,509,32.55
546457,498,33.52
546472,503,32.87
546487,494,33.84
546502,500,32.55
546517,492,34.16
546532,496,32.55
546547,486,33.52
546563,497,31.90
546578,489,33.52
546593,503,32.55
546608,500,33.52
546623,503,33.52
546638,525,33.52
546654,534,33.84
546669,554,33.19
546684,560,33.84
546699,574,31.90
546714,583,33.52
546729,580,32.87
546745,570,32.55
546761,546,33.84
546776,538,32.55
546792,513,33.84
546807,504,33.52
546822,485,33.52
546837,484,33.84
546852,470,33.52
546867,484,32.87
546882,488,32.87
546897,486,33.52
546913,501,32.23
546929,508,33.19
546944,511,33.52
546960,515,33.52
546975,515,33.19
546991,519,32.87
547007,518,32.55
547022,512,34.48
547038,517,33.84
547054,516,34.16
547069,510,33.52
547085,507,33.19
547100,510,33.52
547116,504,34.16
547132,495,33.84
547147,494,32.55
547163,487,33.84
547179,494,32.55
547195,501,33.84
547211,516,33.52
547227,531,34.16
547243,542,34.16
547259,541,33.19
547275,555,31.90
547291,541,33.52
547307,541,33.84
547323,533,33.52
547338,528,31.90
547354,520,33.19
547369,503,33.84
547385,501,33.84
547401,492,33.52
547416,488,33.19
547432,486,33.84
547448,477,33.52
547463,484,33.19
547479,490,33.84
547495,490,33.84
547510,496,33.52
547526,500,31.90
547541,493,33.19
547557,495,34.16
547573,501,32.55
547588,498,33.52
547603,489,32.87
547618,497,32.55
547634,500,33.52
547649,497,33.84
547665,505,33.84
547681,507,31.90
547696,501,33.19
547712,510,32.55
547727,509,33.84
547743,509,34.16
547759,512,33.52
547774,514,34.16
547790,529,31.90
547805,530,34.16
547820,549,33.84
547835,555,33.19
547851,565,33.52
547867,573,33.19
547882,564,33.52
547898,555,33.84
547913,541,32.55
547928,524,33.52
547943,516,33.19
547958,506,33.19
547973,513,32.55
547989,521,34.16
548004,515,33.84
548019,523,32.87
548034,515,33.52
548049,511,33.52
548064,512,32.55
548079,505,33.52
548094,513,33.52
548109,521,32.55
548124,523,33.19
548140,532,33.84
548155,534,33.52
548170,534,32.23
548185,536,32.55
548200,527,33.19
548215,529,33.84
548230,528,32.55
548245,521,32.23
548260,510,33.19
548275,513,32.23
548290,506,32.23
548305,500,33.52
548320,496,33.52
548335,509,31.90
548350,517,32.87
548365,531,33.52
548380,540,32.23
548395,545,34.16
548410,545,32.87
548425,539,32.55
548440,532,33.19
548455,520,33.52
548470,505,32.87
548485,484,33.52
548500,471,33.52
548515,466,32.55
548530,454,33.52
548545,448,34.48
548560,452,33.52
548575,458,33.52
548590,474,32.55
548605,484,33.84
548620,494,33.19
548635,499,33.52
548650,501,33.84
548665,504,32.55
548680,506,33.84
548695,502,33.84
548710,499,33.52
548725,502,32.23
548740,503,34.16
548755,505,32.55
548770,501,32.55
548785,499,33.84
548800,491,33.84
548815,491,33.19
548830,487,33.52
548845,491,33.84
548860,491,33.19
548875,502,32.55
548890,502,33.84
548905,517,32.55
548920,527,32.23
548935,536,32.87
548950,536,33.52
548965,541,31.90
548980,536,33.19
548995,533,33.19
549010,523,33.84
549025,523,34.16
549040,516,33.19
549055,511,34.16
549070,508,33.84
549085,502,33.84
549100,499,33.84
549115,500,33.52
549130,497,33.52
549145,496,33.52
549160,498,33.52
549175,505,33.84
549190,497,32.55
549206,502,33.84
549222,503,33.84
549237,495,33.52
549252,509,33.84
549267,511,32.87
549283,507,33.84
549298,505,33.52
549313,507,33.19
549328,505,33.19
549343,494,33.84
549358,496,33.19
549374,497,33.52
549390,504,33.84
549405,499,34.16
549421,508,33.84
549436,504,32.23
549452,501,33.52
549468,509,33.84
549483,517,32.87
549499,526,33.52
549515,541,33.52
549530,549,32.55
549546,549,33.52
549561,555,33.84
549577,549,33.19
549593,541,32.23
549609,522,33.84
549625,511,33.52
549641,501,33.52
549656,490,33.52
549672,491,34.16
549687,483,33.52
549703,483,32.23
549719,481,33.19
549735,478,32.23
549751,474,34.16
549767,472,33.84
549782,477,32.23
549798,472,33.19
549814,472,33.84
549829,487,32.23
549845,481,33.19
549860,484,34.16
549876,491,33.19
549892,496,32.23
549907,496,31.90
549923,500,32.55
549939,498,33.84
549955,496,33.84
549971,492,33.52
549987,490,32.23
550002,482,33.84
550018,487,30.62
550033,485,33.84
550049,487,33.84
550065,507,33.84
550080,516,33.52
550096,534,34.16
550111,552,32.23
550127,558,32.23
550143,564,31.90
550159,561,32.87
550174,556,33.84
550190,544,33.19
550205,533,32.87
550221,524,32.23
550236,507,33.52
550252,504,34.48
550268,498,32.87
550283,488,33.84
550299,480,33.84
550314,489,32.87
550329,491,33.52
550344,493,33.84
550359,499,32.55
550374,497,33.84
550390,499,33.84
550405,510,33.84
550420,512,32.23
550435,509,33.19
550450,502,33.52
550465,493,34.16
550480,481,33.52
550495,482,34.16
550510,469,33.84
550525,469,33.52
550540,473,33.84
550555,477,33.84
550571,475,33.84
550586,481,33.52
550601,495,32.87
550616,502,32.23
550631,512,31.90
550646,509,33.84
550661,523,32.87
550676,529,31.90
550691,531,34.16
550706,536,33.84
550721,537,33.84
550736,525,33.84
550751,532,33.84
550766,537,33.52
550782,527,33.84
550797,528,33.84
550812,522,32.23
550827,509,34.16
550842,508,34.16
550857,500,33.84
550872,492,33.52
550887,491,33.19
550902,494,32.87
550917,484,33.84
550932,494,33.52
550947,486,33.84
550962,489,33.84
550977,497,34.48
550992,497,33.84
551007,491,33.19
551022,493,33.84
551037,492,33.52
551052,498,33.84
551067,489,33.84
551082,495,33.52
551097,499,32.55
551112,489,33.84
551127,483,33.19
551142,483,33.84
551157,484,32.87
551172,487,33.52
551187,489,32.87
551202,496,32.55
551217,505,31.90
551232,516,32.87
551247,522,33.84
551262,537,32.23
551277,548,33.84
551292,545,32.23
551307,552,33.52
551322,546,33.84
551337,546,33.19
551352,539,34.16
551367,532,32.55
551382,518,33.84
551397,512,33.52
551412,505,32.55
551427,501,32.55
551442,495,33.84
551457,493,32.23
551472,486,33.52
551487,492,32.23
551502,494,33.19
551517,485,33.52
551532,490,33.52
551547,492,34.16
551562,496,34.16
551577,494,32.23
551592,491,34.16
551607,493,33.52
551622,493,34.16
551637,497,34.48
551652,500,32.87
551667,499,33.52
551682,504,33.52
551697,497,33.19
551712,493,33.52
551727,491,33.84
551742,491,33.84
551757,498,33.19
551772,492,33.84
551787,501,33.52
551802,507,33.52
551817,525,34.16
551832,532,32.55
551847,545,32.23
551862,548,33.84
551877,548,32.55
551892,540,34.16
551907,541,33.52
551922,533,34.16
551937,532,33.19
551952,521,34.16
551967,514,33.84
551982,512,33.52
551997,505,33.19
552012,500,32.23
552027,492,34.16
552042,486,33.19
552057,490,33.19
552072,484,34.16
552087,488,33.52
552102,497,33.52
552117,498,32.23
552132,494,33.84
552147,501,32.23
552162,498,33.52
552177,496,33.84
552192,503,31.90
552207,499,32.55
552222,499,33.52
552237,499,31.90
552252,498,32.55
552267,500,33.84
552282,497,33.84
552297,497,33.52
552312,498,33.52
552327,500,32.23
552342,499,32.23
552357,503,33.84
552372,521,32.23
552387,533,33.52
552402,543,32.55
552417,545,33.84
552432,560,33.84
552447,551,33.52
552462,554,33.84
552477,558,33.19
552492,548,32.23
552507,536,33.19
552522,532,32.87
552537,517,33.84
552552,511,33.84
552567,496,33.52
552582,493,34.16
552597,491,33.84
552612,486,33.84
552627,486,32.55
552642,478,33.52
552657,485,32.55
552672,489,33.52
552687,491,33.19
552702,489,33.52
552717,499,33.84
552732,502,32.23
552747,499,34.16
552762,496,33.52
552777,504,32.23
552792,499,33.84
552807,502,32.55
552822,497,33.84
552837,499,34.16
552852,499,33.52
552867,494,34.16
552882,495,33.84
552897,508,32.23
552912,511,31.90
552927,511,33.84
552942,522,33.84
552957,536,33.84
552972,549,33.84
552987,560,33.84
553002,565,33.84
553017,561,33.84
553032,565,31.90
553047,549,33.84
553062,542,33.52
553077,531,33.84
553092,525,32.55
553107,513,33.19
553122,506,33.52
553137,499,32.87
553152,496,33.52
553167,491,34.16
553182,487,33.52
553197,487,32.55
553212,476,33.84
553227,482,33.52
553242,490,33.52
553257,491,33.84
553272,492,34.80
553287,500,33.84
553302,497,33.52
553317,503,32.87
553332,509,33.19
553347,505,34.16
553362,505,33.84
553377,501,33.84
553392,500,33.19
553407,503,34.16
553422,498,31.90
553437,495,32.55
553452,489,33.19
553467,495,33.52
553482,502,33.52
553497,522,32.23
553512,536,33.84
553527,549,32.55
553542,549,33.84
553557,566,32.55
553572,566,34.16
553587,567,33.52
553602,561,33.19
553617,553,32.87
553632,537,33.52
553647,532,34.16
553662,518,33.19
553677,515,34.16
553692,497,33.52
553707,487,33.84
553722,493,32.23
553737,483,33.52
553752,492,33.84
553767,490,32.55
553782,482,34.16
553797,484,33.84
553812,491,31.90
553827,492,31.90
553842,489,33.19
553857,491,33.19
553872,495,32.55
553887,499,33.19
553902,494,34.16
553917,497,33.19
553932,508,31.90
553947,502,32.55
553962,496,33.84
553977,503,33.84
553992,500,33.52
554007,498,31.90
554022,498,34.16
554037,499,33.52
554052,511,33.84
554067,525,33.19
554082,542,33.84
554097,554,32.87
554112,560,33.19
554127,568,31.90
554142,565,33.52
554157,561,33.84
554172,561,32.87
554187,552,32.55
554202,540,31.90
554217,526,33.52
554232,519,31.90
554247,509,33.19
554262,501,32.55
554277,496,32.87
554292,484,33.52
554307,485,34.48
554322,486,32.87
554337,486,33.84
554352,489,33.84
554367,493,33.84
554382,497,32.87
554397,493,33.84
554412,501,31.90
554427,503,32.23
554442,492,33.52
554457,500,33.84
554472,501,32.23
554487,498,33.84
554502,498,34.16
554517,496,33.19
554532,500,32.87
554547,492,33.19
554562,500,32.87
554577,492,33.52
554592,504,33.52
554607,507,33.19
554622,524,33.84
554637,537,33.84
554652,544,33.52
554667,562,33.84
554682,564,34.48
554697,566,33.84
554712,564,33.52
554727,559,32.55
554742,543,33.84
554757,537,32.23
554772,523,34.16
554787,515,33.84
554802,509,34.16
554817,501,32.87
554832,498,31.90
554847,493,33.84
554862,490,32.55
554877,491,32.23
554892,488,33.84
554907,485,33.52
554922,487,33.52
554937,487,33.52
554952,500,32.23
554967,505,32.87
554982,507,32.23
554997,504,34.16
555012,506,32.55
555027,501,33.84
555042,502,33.52
555057,490,33.84
555072,501,33.84
555087,496,33.84
555102,501,33.84
555117,500,32.23
555132,505,32.87
555147,510,34.48
555162,512,33.52
555177,529,32.55
555192,539,33.52
555207,548,33.52
555222,562,32.55
555237,563,34.16
555252,561,34.16
555267,562,33.52
555282,554,34.16
555297,546,33.84
555312,532,33.84
555327,520,33.19
555342,508,33.19
555357,508,33.84
555372,490,33.52
555387,494,34.16
555402,490,34.16
555417,492,31.90
555432,491,32.23
555447,486,33.52
555462,490,33.52
555477,489,33.84
555492,498,33.84
555507,501,32.87
555522,495,33.84
555537,499,33.84
555552,499,32.55
555567,508,31.90
555582,507,33.84
555597,509,32.23
555612,504,33.52
555627,502,33.84
555642,500,31.90
555657,495,32.87
555672,498,32.55
555687,503,32.55
555702,510,32.87
555717,521,33.52
555732,537,34.16
555747,550,33.19
555762,559,33.84
555777,567,34.16
555792,569,32.23
555807,557,32.23
555822,559,33.84
555837,549,34.16
555852,544,33.52
555867,535,33.19
555882,524,34.16
555897,514,33.52
555912,505,32.55
555927,501,33.84
555942,489,33.84
555957,484,32.23
555972,487,32.87
555987,492,33.84
556002,491,33.84
556017,490,32.87
556032,500,33.19
556047,501,32.23
556062,505,31.90
556077,498,34.16
556092,505,33.84
556107,504,33.84
556122,502,33.52
556137,499,33.52
556152,504,33.84
556167,507,32.55
556182,499,32.55
556197,504,32.55
556212,497,33.84
556227,500,35.77
556242,510,32.55
556257,510,33.52
556272,534,34.48
556287,546,33.84
556302,557,32.55
556317,557,33.19
556332,568,34.16
556347,566,34.16
556362,556,33.84
556377,553,34.16
556392,541,33.84
556407,527,32.87
556422,522,31.90
556437,516,32.23
556452,506,34.16
556467,495,34.16
556482,499,32.23
556497,493,33.19
556512,492,34.16
556527,489,34.16
556542,485,31.90
556557,486,33.52
556572,488,32.87
556587,490,34.16
556602,492,33.52
556617,502,33.84
556632,497,33.52
556647,507,34.16
556662,504,33.84
556677,506,32.55
556692,503,31.90
556707,503,32.23
556722,500,34.80
556737,494,33.84
556752,493,33.52
556767,498,33.84
556782,502,33.19
556797,514,33.84
556812,522,33.19
556827,541,33.52
556842,542,33.52
556857,554,33.84
556872,564,34.16
556887,563,34.48
556902,556,33.52
556917,557,32.55
556932,552,34.16
556947,535,34.16
556962,532,33.84
556977,519,33.52
556992,510,33.19
557007,503,32.23
557022,498,34.16
557037,493,31.90
557052,485,33.52
557067,488,33.84
557082,486,33.84
557097,494,32.87
557112,499,32.87
557127,493,33.84
557142,503,34.48
557157,499,33.84
557172,503,32.55
557187,502,33.52
557202,499,33.52
557217,497,33.84
557232,507,33.19
557247,505,33.52
557262,503,33.52
557277,495,34.16
557292,492,33.84
557307,491,33.84
557322,501,34.16
557337,505,34.16
557352,508,33.52
557367,530,31.90
557382,543,33.84
557397,548,33.84
557412,557,34.16
557427,566,33.52
557442,567,32.23
557457,562,32.23
557472,553,33.84
557487,546,32.23
557502,536,33.19
557517,528,32.23
557532,516,32.23
557547,506,34.16
557562,505,32.23
557577,495,33.84
557592,486,33.52
557607,488,33.84
557622,482,33.52
557637,488,33.84
557652,487,34.16
557667,499,32.55
557682,502,34.16
557697,503,33.84
557712,505,32.87
557727,504,34.16
557742,504,34.16
557757,496,33.52
557772,500,33.84
557787,499,33.84
557802,494,33.84
557817,503,33.84
557832,504,32.23
557847,503,33.84
557862,500,33.52
557877,500,33.84
557892,501,32.55
557907,502,33.84
557922,511,33.84
557937,529,32.87
557952,535,33.52
557967,553,32.87
557982,560,33.52
557997,558,33.84
558012,561,34.16
558027,555,33.84
558042,544,33.84
558057,540,34.16
558072,526,33.84
558087,513,33.84
558102,505,33.52
558117,495,33.84
558132,491,33.84
558147,492,34.16
558162,491,33.84
558177,491,33.52
558192,494,32.55
558207,495,33.52
558222,497,32.55
558237,502,32.23
558252,502,33.84
558267,501,33.84
558282,508,32.87
558297,500,33.84
558312,503,33.84
558327,509,34.48
558342,508,32.55
558357,505,34.16
558372,503,33.84
558387,499,33.52
558402,492,33.52
558417,493,33.84
558432,499,32.55
558447,496,33.52
558462,503,32.23
558477,508,33.52
558492,521,34.16
558507,531,33.19
558522,547,33.84
558537,556,33.84
558552,554,33.84
558567,568,32.55
558582,561,34.16
558597,568,32.87
558612,552,32.55
558627,537,33.84
558642,528,33.84
558657,516,32.23
558672,506,33.84
558687,498,32.23
558702,494,32.23
558717,488,34.16
558732,489,33.52
558747,488,32.23
558762,493,32.55
558777,489,33.84
558792,501,31.90
558807,494,33.84
558822,503,33.84
558837,500,33.52
558852,501,33.84
558867,506,32.55
558882,501,33.52
558897,506,34.16
558912,505,33.52
558927,495,34.16
558942,497,33.52
558957,498,32.55
558972,489,33.52
558987,488,33.84
559002,496,33.52
559017,501,32.23
559032,503,33.84
559047,524,34.16
559062,531,33.84
559077,543,33.52
559092,561,33.19
559107,561,33.52
559122,568,32.87
559137,561,33.84
559152,557,32.23
559167,552,32.87
559182,538,34.16
559197,532,32.23
559212,523,32.55
559227,508,33.84
559242,503,32.23
559257,496,32.87
559272,489,32.23
559287,490,32.23
559302,491,33.52
559317,491,32.23
559332,492,34.16
559347,500,32.55
559362,495,33.52
559377,505,33.19
559392,507,34.16
559407,507,33.52
559422,506,32.23
559437,505,33.84
559452,497,33.19
559467,498,33.52
559482,501,33.19
559497,506,32.87
559512,505,31.90
559527,500,34.16
559542,500,33.52
559557,498,34.16
559572,492,34.16
559587,498,33.84
559602,507,33.52
559617,528,33.52
559632,536,33.52
559647,549,33.84
559662,565,32.55
559677,568,33.19
559692,569,32.87
559707,564,34.16
559722,550,33.84
559737,540,33.84
559752,534,32.55
559767,526,32.23
559782,518,32.55
559797,512,32.23
559812,503,32.55
559827,493,33.84
559842,498,31.90
559857,489,32.55
559873,492,33.52
559888,485,34.16
559903,492,33.84
559918,498,31.90
559933,493,33.84
559948,505,33.52
559964,508,33.84
559979,498,33.84
559994,499,33.84
560009,497,33.52
560024,505,34.16
560039,505,32.55
560055,496,33.52
560071,502,32.55
560086,496,33.19
560102,496,34.48
560117,492,33.84
560133,500,32.55
560149,502,33.52
560164,511,32.55
560180,520,32.55
560196,533,32.87
560211,547,32.55
560227,554,33.52
560242,556,33.52
560258,569,33.84
560274,566,32.87
560289,562,31.26
560305,552,31.90
560321,536,33.84
560336,530,34.16
560352,521,32.87
560367,513,29.65
560383,498,33.84
560399,487,33.84
560415,493,33.52
560431,493,32.55
560447,492,32.87
560462,488,34.16
560478,488,33.84
560494,500,32.23
560509,502,32.87
560525,505,33.84
560541,506,32.23
560557,508,32.55
560573,503,34.16
560589,506,32.23
560605,497,33.52
560621,501,32.55
560637,501,34.16
560653,490,33.84
560669,499,31.58
560685,497,32.87
560701,498,33.84
560717,490,32.87
560733,500,33.84
560749,504,34.16
560765,520,33.84
560781,539,32.87
560797,542,33.19
560813,557,34.16
560829,564,33.84
560845,567,34.16
560861,564,32.55
560877,560,33.84
560893,550,32.55
560909,543,32.55
560924,529,33.84
560940,519,34.16
560956,503,34.16
560971,504,33.84
560987,497,32.55
561002,489,33.52
561018,482,33.84
561034,494,33.84
561049,486,33.84
561065,497,33.84
561080,493,33.19
561096,502,33.52
561112,505,31.90
561127,499,34.16
561143,506,33.84
561158,507,32.87
561174,508,32.55
561190,506,33.84
561205,503,32.55
561221,503,32.55
561236,500,32.55
561252,498,32.23
561268,498,32.23
561283,494,33.84
561299,495,33.84
561314,496,31.90
561329,498,32.87
561344,498,33.84
561359,510,32.23
561374,513,34.16
561390,532,32.87
561405,540,33.52
561420,547,33.19
561435,558,34.16
561450,563,31.90
561465,557,33.84
561480,548,33.52
561495,551,32.55
561510,540,33.84
561525,534,31.90
561540,524,32.55
561555,507,33.52
561571,502,34.16
561586,497,33.52
561601,488,33.84
561616,482,33.84
561631,492,34.16
561646,495,34.48
561661,498,31.90
561676,501,32.87
561691,497,33.84
561706,501,33.84
561721,510,31.90
561736,499,34.16
561751,498,33.52
561766,505,32.23
561781,501,34.16
561796,503,32.23
561811,497,33.84
561826,503,31.90
561841,497,34.16
561856,498,31.90
561871,493,34.16
561886,498,33.19
561901,496,34.16
561916,496,33.84
561931,496,34.16
561946,500,34.48
561961,503,33.84
561976,517,34.16
561991,533,31.90
562006,542,32.23
562021,548,33.84
562036,561,33.84
562051,561,32.55
562066,560,34.80
562081,558,33.84
562096,551,33.52
562111,538,33.84
562126,528,33.84
562141,520,33.19
562156,509,34.48
562171,502,32.55
562186,494,32.87
562201,490,32.55
562216,489,32.23
562231,487,33.52
562246,481,33.84
562261,491,33.84
562276,498,33.19
562291,499,32.23
562306,502,32.23
562321,503,33.52
562336,504,33.84
562351,501,33.84
562366,500,33.52
562382,510,33.19
562397,509,32.23
562412,509,32.87
562427,499,34.16
562442,494,33.84
562457,501,33.84
562473,491,34.16
562488,495,32.87
562503,493,32.87
562518,489,33.84
562533,495,33.52
562548,496,33.84
562564,508,33.52
562580,520,32.55
562595,535,32.55
562611,550,33.52
562626,560,32.55
562641,559,34.16
562656,563,34.16
562672,558,32.55
562688,545,33.52
562704,536,33.84
562719,534,33.52
562735,516,33.52
562750,509,33.52
562766,501,33.19
562782,499,32.87
562797,494,34.48
562813,492,32.23
562828,492,32.87
562844,489,34.16
562860,494,32.87
562875,496,32.23
562891,499,32.55
562906,499,33.84
562922,493,32.55
562938,502,34.16
562954,502,32.55
562970,499,32.87
562986,500,32.87
563002,501,32.87
563018,492,33.52
563034,500,33.52
563050,498,32.87
563066,498,32.55
563082,492,33.52
563098,501,32.23
563114,491,33.19
563130,496,33.52
563146,500,31.90
563162,505,34.16
563178,515,33.19
563194,528,32.23
563210,542,32.55
563226,554,32.87
563242,551,33.84
563258,555,33.52
563273,562,32.23
563289,556,32.87
563305,545,33.84
563321,537,34.16
563337,530,32.55
563353,520,34.16
563368,512,34.16
563384,495,33.52
563400,490,33.84
563415,491,33.52
563431,491,34.16
563446,484,34.16
563462,490,33.52
563478,495,32.23
563493,484,33.52
563509,500,32.87
563524,498,31.90
563540,502,33.84
563556,497,34.16
563571,504,32.23
563587,502,34.48
563602,499,33.84
563618,501,34.16
563634,493,33.84
563649,500,33.52
563665,491,33.19
563680,500,33.84
563696,500,32.23
563712,495,32.55
563727,491,33.52
563743,498,34.48
563758,493,34.16
563773,497,33.52
563788,505,32.55
563803,512,33.52
563818,525,33.84
563833,542,34.48
563848,552,33.84
563864,561,34.16
563879,564,34.16
563894,561,33.84
563909,550,34.16
563924,547,34.16
563939,531,33.84
563954,527,34.16
563969,519,33.52
563984,512,32.87
563999,502,33.52
564015,496,33.84
564030,497,31.90
564045,493,32.55
564060,485,33.84
564075,494,33.19
564090,490,33.84
564105,496,32.55
564120,494,34.16
564135,501,34.16
564150,494,33.19
564165,499,34.16
564180,499,34.16
564195,503,33.19
564210,497,33.52
564225,503,32.87
564240,502,34.48
564255,498,32.87
564270,498,32.87
564285,498,34.16
564300,498,34.80
564315,496,33.52
564330,499,33.19
564345,493,33.84
564360,498,33.52
564375,499,33.52
564390,500,32.23
564405,498,33.19
564420,516,32.87
564435,521,33.19
564450,541,32.23
564465,543,33.84
564480,551,34.16
564495,558,34.16
564510,564,32.87
564525,556,32.23
564540,546,32.55
564555,536,33.52
564570,525,32.55
564585,519,33.19
564600,510,33.84
564615,496,34.16
564630,496,32.55
564645,493,33.84
564660,488,32.23
564675,489,33.84
564690,480,33.84
564705,487,33.52
564720,494,32.23
564735,497,32.55
564750,500,33.19
564765,504,34.16
564780,501,33.52
564795,502,33.84
564810,508,33.84
564826,504,33.84
564841,503,33.84
564856,500,34.16
564871,501,32.55
564887,499,33.19
564903,494,33.19
564918,496,32.23
564934,489,33.84
564949,494,33.84
564964,492,34.16
564979,498,33.84
564995,498,32.23
565011,505,34.16
565026,511,32.87
565042,527,32.23
565057,536,33.84
565073,546,33.19
565089,551,33.52
565104,560,34.16
565120,557,33.84
565136,551,33.84
565151,547,33.52
565167,544,34.16
565182,531,33.52
565198,519,33.84
565214,515,34.16
565229,510,34.16
565245,498,33.19
565261,489,33.52
565277,493,32.23
565293,494,32.23
565309,492,33.19
565325,492,32.55
565341,491,33.84
565357,491,34.16
565373,501,32.87
565389,494,33.19
565405,495,33.52
565421,503,32.87
565437,495,34.16
565453,502,33.84
565469,494,33.19
565485,502,32.55
565501,493,33.19
565517,500,33.84
565533,493,33.19
565549,490,33.84
565565,500,32.23
565581,491,33.52
565596,502,32.55
565612,496,34.16
565628,495,33.19
565644,501,33.19
565660,508,33.84
565676,526,32.55
565691,530,33.52
565707,540,31.58
565722,559,34.16
565738,559,33.84
565754,558,33.19
565769,555,33.52
565785,560,32.87
565800,543,33.52
565816,535,34.16
565832,528,33.84
565847,514,33.52
565863,509,32.87
565879,505,32.87
565894,490,33.84
565910,495,32.23
565925,487,33.84
565941,486,33.52
565957,490,33.84
565972,493,32.55
565988,497,34.16
566003,502,32.23
566019,499,33.52
566035,503,33.84
566050,498,34.16
566066,499,33.84
566081,498,33.52
566096,506,33.19
566111,497,33.52
566127,501,32.87
566143,490,33.52
566158,501,32.55
566174,497,34.16
566189,497,32.23
566204,496,32.23
566219,487,33.52
566234,495,32.23
566249,497,32.55
566265,491,33.84
566281,502,32.23
566296,503,33.84
566311,519,33.19
566326,531,32.55
566341,546,33.84
566356,552,32.55
566372,561,32.23
566387,564,31.90
566402,562,32.23
566417,557,31.90
566433,552,32.23
566448,545,32.55
566463,526,33.84
566478,525,33.52
566493,515,32.87
566508,507,32.55
566523,495,33.52
566538,485,33.84
566553,492,33.19
566568,484,34.16
566583,490,33.84
566598,498,32.87
566613,498,33.52
566628,500,34.16
566643,500,32.55
566658,504,33.84
566673,505,33.52
566688,507,32.55
566703,508,33.84
566718,509,33.19
566733,502,33.52
566748,508,33.19
566763,508,33.84
566778,504,32.55
566793,502,32.87
566808,495,33.84
566823,500,32.55
566838,494,33.84
566853,494,33.19
566868,487,33.84
566883,490,33.52
566898,490,33.84
566913,498,33.84
566928,508,32.23
566943,516,32.87
566958,525,33.84
566973,538,33.52
566988,545,33.84
567003,557,32.87
567018,560,32.23
567033,558,33.84
567048,555,33.84
567063,543,33.84
567078,540,32.87
567093,534,32.23
567108,522,32.23
567123,511,34.80
567138,504,32.55
567153,497,34.16
567168,489,33.84
567183,495,33.52
567198,493,32.87
567213,498,32.87
567228,492,33.52
567243,500,32.55
567258,501,33.84
567273,499,33.84
567288,504,32.23
567303,506,32.55
567318,506,33.52
567333,507,33.19
567348,507,32.23
567363,507,34.16
567378,500,34.16
567393,502,33.84
567408,500,32.23
567423,498,33.19
567438,488,33.52
567453,494,34.16
567468,495,33.84
567483,502,33.19
567498,491,33.52
567513,494,33.52
567528,493,33.84
567543,497,33.52
567558,501,33.84
567573,517,32.87
567588,522,33.84
567603,543,32.23
567618,554,32.87
567633,557,34.16
567648,561,34.16
567663,558,33.84
567678,556,33.84
567693,552,32.87
567708,538,33.84
567723,531,33.84
567738,529,32.55
567753,515,33.19
567768,506,34.16
567783,500,31.90
567798,499,33.84
567813,490,33.52
567828,488,33.84
567843,496,32.23
567858,486,33.84
567873,490,33.84
567888,498,33.84
567903,503,32.87
567918,509,32.55
567933,499,33.52
567948,501,33.52
567963,507,33.19
567978,505,33.84
567993,499,33.52
568008,504,33.19
568023,500,32.55
568038,500,31.90
568053,499,33.84
568068,498,32.23
568083,495,34.16
568098,495,34.16
568113,498,33.84
568128,495,33.19
568143,497,32.23
568158,499,33.19
568173,500,32.87
568188,511,32.23
568203,521,32.87
568218,535,34.16
568233,551,33.84
568248,552,33.52
568263,558,34.16
568278,565,33.52
568293,563,32.87
568308,563,32.55
568323,551,34.16
568338,541,34.16
568353,538,32.87
568368,522,33.52
568383,522,32.87
568398,510,33.52
568413,507,34.80
568428,501,34.16
568443,488,33.52
568458,489,34.16
568473,491,32.55
568488,492,34.16
568503,491,33.84
568518,492,33.52
568533,504,33.19
568548,506,34.16
568563,507,33.52
568579,509,32.55
568594,505,33.52
568609,508,32.55
568624,500,33.84
568639,502,31.58
568654,504,34.16
568670,502,34.16
568685,500,31.58
568700,495,34.16
568715,504,32.23
568730,501,32.23
568745,501,32.55
568760,500,32.23
568775,496,32.55
568790,497,33.19
568805,499,33.84
568820,514,33.19
568835,529,32.55
568850,540,34.16
568865,554,32.23
568880,561,32.23
568895,563,31.26
568910,566,33.52
568925,557,33.52
568940,557,34.16
568955,542,35.13
568970,532,33.84
568985,534,32.55
569000,520,33.84
569015,516,33.19
569030,503,33.84
569045,500,34.80
569060,495,33.84
569075,491,32.55
569090,489,33.84
569105,489,33.84
569120,486,33.19
569135,495,33.52
569150,495,33.84
569165,501,33.84
569180,507,32.23
569195,509,32.55
569210,507,33.84
569225,499,33.19
569240,499,33.52
569255,506,33.52
569270,495,32.55
569285,498,34.16
569300,505,33.84
569315,503,33.19
569330,496,33.52
569345,500,34.16
569360,497,33.84
569375,496,32.55
569390,495,32.87
569405,497,32.23
569420,501,34.16
569435,503,32.23
569450,514,33.52
569465,529,32.87
569480,543,32.23
569495,556,32.87
569510,564,33.84
569525,561,33.84
569540,562,33.52
569555,564,33.19
569570,552,32.23
569585,550,33.52
569600,541,32.23
569615,524,33.52
569630,518,34.16
569645,514,32.87
569660,498,34.16
569675,496,33.84
569690,487,33.19
569705,492,32.55
569720,491,34.80
569735,488,33.84
569750,497,33.84
569765,495,33.52
569780,498,33.84
569795,508,32.87
569810,500,33.52
569825,506,33.52
569840,505,33.84
569855,499,33.84
569870,502,33.19
569885,499,33.84
569900,503,34.16
569915,498,33.84
569930,499,34.16
569945,499,33.52
569960,500,33.19
569975,497,34.16
569990,496,33.84
570005,500,34.16
570020,495,34.16
570035,499,33.19
570050,501,33.52
570065,518,33.19
570080,519,33.19
570095,530,33.52
570110,548,32.55
570125,557,34.16
570140,565,32.55
570155,564,32.87
570170,551,33.52
570185,557,33.52
570200,553,33.52
570215,539,32.87
570230,525,33.84
570245,510,33.84
570260,508,34.48
570275,492,33.52
570290,496,33.52
570305,488,32.23
570320,488,32.55
570335,487,33.52
570350,493,34.16
570365,501,32.87
570380,504,33.84
570395,500,33.84
570410,502,33.84
570425,507,33.19
570440,510,32.55
570455,504,33.84
570470,506,34.16
570485,509,32.55
570500,502,33.52
570515,506,33.52
570530,496,33.52
570545,497,33.84
570560,502,32.87
570575,499,34.16
570590,499,32.55
570606,491,33.19
570621,488,33.52
570636,496,34.16
570651,501,34.16
570666,504,33.84
570681,521,33.84
570697,536,33.84
570712,547,32.55
570727,549,34.48
570742,562,32.55
570757,557,34.16
570772,555,34.16
570788,559,32.23
570804,553,33.52
570819,542,34.48
570835,536,33.84
570850,529,32.87
570865,519,33.52
570880,504,33.52
570895,500,34.16
570910,492,33.52
570926,493,33.52
570942,492,33.19
570957,487,33.84
570973,488,33.84
570988,487,33.52
571004,500,32.55
571020,496,33.52
571035,507,32.55
571051,507,34.48
571067,507,32.87
571082,507,33.84
571098,501,33.52
571113,508,33.52
571128,506,33.52
571143,493,33.52
571159,496,33.52
571175,497,33.19
571191,493,33.84
571207,491,33.84
571223,489,33.52
571238,495,32.55
571254,501,32.55
571270,494,33.52
571286,514,33.84
571302,519,33.19
571317,531,34.16
571333,548,33.84
571349,560,33.84
571365,558,33.52
571381,569,33.84
571397,566,34.16
571413,559,33.19
571428,554,32.55
571444,544,31.90
571460,533,33.52
571476,522,34.16
571492,504,34.16
571508,507,33.19
571523,496,33.52
571539,485,33.52
571555,488,33.84
571571,490,33.52
571587,485,33.52
571603,495,33.84
571618,499,32.55
571634,506,33.19
571650,502,33.84
571665,507,33.84
571681,509,33.84
571696,512,32.23
571712,511,33.84
571728,501,34.16
571743,504,33.84
571759,501,33.52
571774,498,33.52
571790,492,34.16
571806,499,32.55
571821,490,33.52
571837,500,32.23
571852,496,34.16
571868,496,33.84
571884,498,32.23
571899,499,33.84
571915,501,33.52
571930,519,33.52
571946,536,32.23
571962,544,33.84
571977,556,32.87
571993,563,32.55
572008,557,33.84
572023,564,33.84
572038,557,32.23
572053,549,32.23
572068,533,33.84
572083,527,33.84
572098,521,32.55
572113,511,33.84
572128,507,32.23
572144,498,34.16
572159,492,33.52
572174,483,33.84
572189,485,34.16
572204,485,34.16
572219,494,34.16
572234,501,32.55
572249,503,34.16
572264,499,33.52
572279,503,34.16
572294,503,33.84
572309,497,33.52
572324,502,33.52
572339,503,33.84
572354,499,34.16
572369,500,33.84
572384,505,33.19
572399,496,33.84
572414,497,33.52
572429,501,33.84
572444,498,32.87
572459,495,33.84
572474,493,33.52
572489,495,32.23
572504,496,34.16
572519,494,34.16
572534,505,33.84
572549,519,32.55
572564,530,32.87
572579,549,32.23
572594,551,33.84
572609,555,34.16
572624,557,33.84
572639,553,33.84
572654,554,32.55
572669,550,33.19
572684,533,33.84
572699,530,33.84
572714,527,32.55
572729,513,31.90
572744,499,33.84
572759,490,33.52
572774,491,32.55
572789,485,32.87
572804,490,33.84
572819,491,32.23
572834,495,32.55
572849,499,33.52
572864,501,33.84
572879,504,32.23
572894,505,32.55
572909,502,33.84
572924,498,33.84
572939,496,33.52
572954,507,32.87
572969,501,33.52
572984,506,32.55
572999,497,33.84
573014,498,34.48
573029,502,32.87
573044,497,32.23
573059,496,33.52
573074,489,33.52
573089,491,33.84
573104,494,31.90
573119,487,33.84
573134,490,33.52
573149,499,34.16
573164,503,33.84
573180,518,34.16
573196,533,32.23
573211,550,34.48
573227,560,32.55
573242,559,34.16
573258,568,33.19
573274,565,33.84
573289,551,34.16
573304,552,34.48
573319,540,32.55
573335,530,34.16
573350,513,34.16
573365,509,34.16
573380,495,33.52
573395,496,34.80
573410,487,33.19
573426,490,33.19
573442,492,33.52
573457,493,32.55
573473,494,32.87
573488,489,33.84
573504,499,33.84
573520,501,33.84
573535,507,33.52
573551,509,33.84
573567,508,32.23
573582,509,34.16
573598,505,33.52
573613,499,33.84
573629,501,32.55
573645,494,33.19
573660,493,33.52
573676,498,32.87
573692,498,33.84
573708,502,34.48
573724,495,34.16
573740,505,32.23
573756,502,33.52
573772,506,34.16
573788,507,33.84
573804,503,33.84
573820,520,33.84
573836,524,33.84
573852,534,34.16
573868,553,32.55
573884,556,32.87
573900,550,33.84
573915,556,33.84
573931,552,32.55
573947,543,34.16
573963,536,33.52
573979,522,33.84
573995,510,33.84
574010,509,33.52
574026,501,32.23
574042,493,32.55
574058,487,33.84
574074,485,34.16
574090,484,32.55
574105,479,33.84
574121,489,32.55
574136,489,33.52
574152,500,33.84
574168,502,33.19
574183,502,33.84
574199,501,33.52
574215,504,32.23
574230,500,33.84
574245,495,33.84
574260,501,32.23
574276,499,34.16
574291,497,32.23
574307,498,34.16
574323,496,32.55
574338,499,32.55
574354,494,33.52
574369,502,34.16
574385,500,33.84
574400,493,33.84
574415,502,34.48
574430,501,33.52
574446,504,33.84
574462,507,33.52
574477,522,33.19
574493,526,33.84
574508,544,32.55
574523,546,33.52
574538,548,33.84
574553,558,32.23
574568,546,34.16
574583,551,32.55
574598,536,33.84
574614,534,32.55
574629,524,32.55
574644,509,33.84
574659,496,34.16
574674,499,34.16
574689,488,33.84
574704,491,33.84
574719,490,32.55
574734,493,32.87
574749,492,32.55
574765,497,33.84
574780,500,32.55
574795,496,34.16
574810,494,33.52
574825,504,32.23
574840,503,32.23
574855,495,34.16
574870,498,33.84
574885,503,33.84
574900,503,32.23
574915,503,33.84
574930,502,32.87
574945,500,33.52
574960,495,33.52
574975,496,33.84
574990,494,33.19
575005,492,33.19
575020,493,33.84
575035,489,33.52
575050,498,32.23
575065,495,34.16
575080,499,33.19
575095,515,32.23
575110,523,32.23
575125,536,34.16
575140,546,32.23
575155,555,33.52
575170,550,33.52
575185,559,33.84
575200,554,33.19
575215,552,33.52
575230,543,33.52
575245,532,33.19
575260,523,33.52
575275,505,33.84
575290,502,34.16
575305,497,33.19
575320,493,32.87
575335,485,33.52
575350,491,32.23
575365,488,33.84
575380,495,32.23
575395,494,33.52
575410,489,33.52
575425,494,33.52
575440,501,31.90
575455,504,32.55
575470,495,33.84
575485,502,33.84
575500,505,33.84
575515,505,31.58
575530,500,32.23
575545,500,33.52
575560,497,32.55
575575,495,33.84
575590,496,33.52
575605,495,33.52
575620,492,34.16
575636,499,33.19
575651,498,32.23
575666,491,33.84
575681,498,33.19
575696,491,33.84
575711,503,32.87
575727,509,34.16
575742,516,33.52
575757,533,34.16
575772,545,33.84
575787,558,33.84
575802,556,33.84
575817,565,33.52
575832,565,34.16
575847,551,33.52
575862,544,33.84
575878,533,33.84
575893,522,33.84
575908,519,32.55
575923,510,33.84
575938,503,32.55
575953,497,33.84
575968,493,34.16
575983,494,32.23
575999,497,33.19
576015,490,32.87
576030,487,33.84
576046,493,33.84
576061,490,33.52
576077,503,32.23
576093,496,33.84
576108,504,32.23
576124,497,33.84
576140,500,33.84
576155,494,33.84
576171,495,33.52
576186,502,32.23
576202,497,33.52
576217,498,33.84
576233,498,34.48
576249,499,32.23
576265,501,33.84
576280,495,33.52
576296,496,33.52
576311,491,32.87
576327,486,33.84
576343,497,33.84
576359,495,32.87
576375,514,32.55
576390,523,32.55
576406,539,32.87
576422,552,34.48
576437,560,34.48
576453,556,33.52
576469,567,32.55
576485,564,32.55
576501,555,32.87
576517,546,32.55
576533,534,33.52
576549,522,32.55
576565,509,33.84
576581,503,32.55
576596,496,32.23
576612,493,32.87
576628,492,33.52
576644,490,33.84
576660,493,32.55
576675,485,33.84
576691,499,32.55
576707,499,33.52
576722,502,33.84
576738,504,34.16
576754,498,33.84
576769,506,33.19
576785,499,33.52
576800,505,32.55
576816,498,34.16
576831,499,34.16
576846,492,34.16
576862,493,33.84
576877,493,34.16
576893,499,33.19
576908,489,33.52
576924,495,32.55
576940,492,33.84
576955,495,33.19
576971,494,34.16
576986,494,34.16
577002,501,32.23
577018,506,34.16
577033,526,33.84
577049,534,33.52
577064,548,33.52
577079,558,33.52
577094,556,33.52
577109,554,33.84
577124,555,34.16
577140,552,33.84
577155,545,34.16
577170,527,33.19
577185,519,33.52
577200,513,33.84
577215,505,33.84
577230,501,32.23
577245,494,33.52
577260,492,32.23
577275,482,33.52
577290,487,33.52
577305,490,33.84
577321,485,33.52
577336,497,32.87
577351,497,33.52
577366,502,33.84
577381,505,34.80
577396,505,33.52
577411,507,31.90
577426,504,33.19
577441,500,33.52
577456,502,31.90
577471,500,31.90
577486,501,32.23
577501,500,32.55
577516,497,33.52
577531,498,33.84
577546,497,33.84
577561,499,32.55
577576,491,34.16
577591,491,33.52
577606,494,33.52
577621,502,32.23
577636,501,33.84
577651,506,32.55
577666,512,33.19
577681,521,33.52
577696,536,33.84
577711,538,34.16
577726,558,33.84
577741,553,33.84
577756,564,32.23
577771,562,32.87
577786,554,33.52
577801,544,33.84
577816,541,33.52
577831,530,33.84
577846,524,32.55
577861,511,33.84
577876,498,33.84
577891,497,32.23
577906,493,32.87
577921,485,33.52
577936,488,34.16
577951,486,34.16
577966,495,33.52
577981,496,33.52
577996,499,33.84
578011,498,34.16
578026,495,33.52
578041,503,31.90
578056,504,32.87
578071,504,33.84
578086,506,33.84
578101,505,32.23
578116,495,33.84
578131,502,32.55
578146,495,33.19
578161,487,33.52
578176,496,34.16
578191,496,32.23
578206,497,32.87
578222,495,32.55
578237,497,32.23
578252,497,33.84
578267,492,33.84
578282,501,34.16
578297,501,33.52
578312,503,32.55
578327,503,33.84
578343,513,34.16
578358,533,34.16
578373,545,34.16
578388,551,34.16
578403,560,33.52
578418,563,33.84
578434,565,34.16
578449,562,32.23
578464,553,32.23
578479,542,33.84
578494,533,32.87
578509,522,33.84
578525,513,32.23
578541,500,32.55
578556,497,33.84
578572,496,32.87
578587,494,31.58
578603,492,31.90
578619,496,32.23
578634,498,34.16
578649,500,33.84
578664,502,33.84
578680,500,33.52
578696,509,32.55
578711,502,33.84
578727,506,33.84
578742,508,32.55
578758,506,33.19
578774,501,33.84
578790,502,32.23
578806,498,34.16
578822,497,34.16
578838,500,31.58
578854,497,32.87
578870,500,32.87
578886,498,32.23
578902,498,33.84
578918,495,33.52
578933,501,32.55
578949,505,34.16
578964,499,34.16
578980,505,34.16
578996,513,34.16
579012,523,33.84
579027,536,32.55
579043,540,34.48
579059,551,33.84
579075,562,32.55
579091,563,32.55
579106,551,33.19
579122,542,33.84
579138,545,33.52
579153,538,33.84
579169,520,33.52
579184,519,33.84
579200,504,34.16
579216,506,32.23
579231,493,33.19
579247,499,32.23
579262,494,31.90
579277,489,33.19
579293,490,33.84
579308,496,32.55
579324,499,33.84
579339,503,34.16
579355,503,33.19
579370,505,33.84
579385,499,33.84
579400,510,34.48
579415,495,33.84
579430,504,34.16
579446,503,34.16
579462,500,34.16
579477,494,33.84
579493,492,33.52
579508,490,33.84
579523,496,32.55
579538,497,33.84
579553,500,32.23
579568,501,33.19
579583,497,33.84
579598,501,32.87
579613,500,33.84
579628,506,31.90
579643,510,32.23
579658,514,33.84
579674,532,33.19
579689,546,34.16
579704,559,32.55
579719,557,33.19
579734,569,32.87
579749,568,33.84
579765,562,32.55
579780,550,33.84
579795,545,34.48
579810,537,32.55
579825,528,32.23
579840,511,33.52
579855,502,33.52
579870,504,34.16
579885,496,32.55
579900,494,33.19
579915,497,32.23
579930,487,33.52
579945,493,32.87
579960,491,33.84
579975,498,32.55
579990,498,33.84
580005,495,33.84
580020,500,33.84
580035,502,34.16
580050,499,33.84
580065,504,33.84
580080,502,33.84
580095,504,31.90
580110,497,34.16
580125,499,33.84
580140,498,32.87
580155,500,32.55
580170,500,33.19
580185,497,33.19
580200,493,33.19
580215,501,32.87
580230,501,33.52
580245,491,33.52
580260,495,33.84
580275,493,33.84
580290,494,33.52
580305,504,33.52
580320,514,32.87
580335,526,32.55
580350,538,33.84
580365,545,33.84
580380,561,32.23
580395,567,33.19
580410,567,32.55
580425,565,33.19
580440,553,33.84
580455,545,33.84
580470,544,32.55
580485,537,33.19
580500,522,33.52
580515,514,34.16
580530,509,32.87
580545,504,33.19
580560,490,33.84
580575,487,33.19
580590,490,34.16
580605,488,34.16
580620,488,33.84
580635,495,33.84
580650,501,34.16
580665,501,33.52
580680,497,33.52
580695,506,33.84
580710,505,34.16
580725,506,32.87
580740,506,32.55
580755,498,33.52
580770,497,34.80
580785,503,32.55
580800,502,32.55
580815,502,34.48
580830,496,34.16
580845,500,33.84
580860,497,33.84
580875,497,32.87
580890,498,33.84
580905,500,34.16
580920,500,32.87
580935,497,34.80
580950,500,34.16
580965,501,33.84
580980,506,32.55
580995,512,33.19
581010,523,32.55
581025,531,33.19
581040,546,32.87
581055,546,33.84
581070,559,32.87
581085,564,33.19
581100,564,34.16
581115,561,32.23
581130,546,33.52
581145,544,34.16
581160,538,32.55
581175,530,33.52
581190,519,33.84
581205,507,33.52
581220,509,33.84
581235,498,33.84
581250,501,32.23
581265,497,33.84
581280,496,31.90
581295,493,33.84
581310,488,33.84
581325,486,33.52
581340,494,34.16
581355,499,31.90
581370,498,33.84
581385,502,34.16
581400,507,32.55
581415,505,33.84
581430,495,33.84
581445,501,32.55
581460,497,33.84
581475,497,33.19
581490,491,33.52
581505,496,32.23
581520,499,33.84
581535,495,32.23
581550,494,33.84
581565,500,34.16
581580,493,33.84
581595,498,34.16
581610,496,33.52
581625,498,34.16
581640,509,33.84
581655,516,34.16
581670,529,33.84
581685,547,32.55
581700,560,34.16
581715,568,33.19
581730,562,34.16
581745,558,33.84
581760,558,32.23
581775,549,34.16
581790,536,33.52
581805,533,33.84
581820,520,33.84
581835,519,33.19
581850,510,33.19
581865,495,34.48
581880,493,33.52
581895,488,33.84
581910,490,32.87
581925,492,33.84
581940,493,34.16
581955,495,33.84
581970,494,33.84
581985,505,32.55
582000,507,33.19
582015,507,32.23
582030,508,32.55
582045,507,33.52
582060,499,33.52
582075,507,31.90
582090,504,32.55
582105,505,32.23
582120,506,34.16
582135,498,33.52
582150,506,33.84
582165,503,32.23
582180,497,34.16
582195,489,33.19
582210,487,34.16
582225,494,32.23
582240,496,32.55
582255,497,33.84
582270,493,33.84
582285,498,33.52
582300,509,34.16
582315,505,33.52
582330,515,33.84
582345,528,33.84
582360,543,32.23
582375,555,34.16
582390,556,33.84
582405,558,34.16
582420,566,34.16
582435,563,33.84
582450,557,33.84
582465,550,33.84
582480,533,33.84
582495,531,33.19
582510,521,32.55
582525,512,33.52
582540,504,33.52
582555,493,34.16
582570,489,33.19
582585,495,33.19
582600,489,33.19
582615,487,34.16
582630,496,33.84
582645,498,32.55
582660,493,34.16
582675,496,33.52
582690,504,32.55
582705,499,33.52
582720,499,33.84
582735,502,33.84
582750,508,33.19
582765,500,34.16
582780,500,33.52
582795,495,34.16
582810,491,34.16
582825,499,32.87
582840,494,33.52
582855,499,33.19
582870,500,32.23
582885,495,33.84
582900,499,31.90
582915,492,33.19
582930,497,32.55
582945,497,32.87
582960,491,33.52
582975,501,32.23
582990,508,33.52
583005,518,32.23
583020,528,33.52
583035,548,32.87
583050,559,31.90
583065,565,32.23
583080,568,32.23
583095,564,32.23
583110,558,33.84
583125,545,33.84
583140,544,32.23
583155,533,33.84
583170,523,33.52
583185,523,32.23
583200,509,34.16
583215,507,32.55
583230,499,33.84
583245,495,33.52
583260,492,32.55
583275,485,34.16
583290,492,32.87
583305,497,32.55
583320,496,33.84
583335,505,32.23
583350,498,33.52
583365,509,32.23
583380,512,32.87
583395,506,33.84
583410,504,34.16
583425,507,32.23
583440,504,32.23
583455,501,34.16
583470,501,34.16
583485,491,33.52
583500,500,33.84
583515,500,34.16
583530,498,33.52
583545,491,34.16
583560,491,33.52
583575,497,34.16
583590,497,32.23
583605,496,33.84
583620,496,34.16
583635,502,32.23
583650,499,33.84
583665,508,32.55
583680,522,32.23
583695,526,33.52
583710,540,33.19
583725,546,33.52
583740,559,32.55
583755,560,33.52
583770,557,33.84
583785,558,32.55
583800,552,32.23
583815,545,34.16
583830,530,33.84
583845,523,34.16
583860,514,33.84
583875,500,33.84
583890,499,33.19
583905,493,33.84
583920,491,33.84
583935,489,33.52
583950,485,33.84
583965,498,33.84
583980,499,32.23
583995,500,31.90
584010,497,33.84
584025,500,33.84
584040,499,33.52
584055,499,33.19
584070,502,34.16
584085,503,33.19
584100,508,33.84
584115,507,32.55
584130,502,33.52
584145,493,33.52
584160,496,32.87
584175,495,32.23
584190,495,32.87
584205,494,31.90
584220,489,32.55
584235,498,33.19
584250,497,30.94
584265,490,33.84
584280,490,33.52
584295,499,34.16
584310,497,33.84
584325,499,34.16
584340,504,33.19
584355,520,32.23
584370,536,32.55
584385,541,33.52
584400,554,33.84
584415,567,32.87
584430,564,33.84
584445,565,32.55
584460,553,33.84
584475,546,34.16
584490,546,32.55
584505,537,32.55
584520,530,33.52
584535,519,34.16
584550,513,32.55
584565,500,33.84
584580,500,32.55
584595,491,33.84
584610,490,33.84
584625,491,33.52
584640,492,33.84
584655,497,33.19
584670,500,32.87
584685,495,33.19
584700,504,33.52
584715,509,34.16
584730,501,34.16
584745,503,33.84
584760,505,32.55
584775,507,33.84
584790,502,31.58
584805,496,33.84
584820,493,34.16
584835,502,33.84
584850,501,31.58
584865,500,33.84
584880,499,32.55
584895,501,32.23
584910,496,32.87
584925,492,33.52
584940,491,34.16
584955,503,32.55
584970,500,33.52
584985,499,34.16
585000,505,33.84
585015,505,33.84
585030,512,32.55
585045,524,33.52
585060,536,33.52
585075,543,31.58
585090,559,33.84
585105,562,33.52
585120,565,33.84
585135,564,34.48
585150,562,34.16
585165,553,32.55
585180,544,32.55
585195,525,33.52
585210,517,33.84
585225,514,34.16
585240,499,34.48
585255,500,33.84
585270,496,33.52
585285,492,31.90
585300,494,33.19
585315,492,33.84
585330,492,32.55
585345,491,34.16
585360,494,34.16
585375,501,32.23
585390,506,34.16
585405,503,33.84
585420,508,34.48
585435,507,32.23
585450,510,33.52
585465,502,33.84
585480,506,33.19
585495,503,32.87
585510,500,33.19
585525,500,32.87
585540,500,32.55
585555,500,33.19
585570,498,33.19
585585,493,33.84
585600,499,33.19
585615,493,33.84
585630,494,34.16
585645,495,33.84
585660,493,32.23
585675,495,33.84
585690,494,33.52
585705,507,34.16
585720,512,33.52
585735,529,32.23
585750,537,33.84
585765,552,32.87
585780,561,32.55
585795,562,34.16
585810,553,33.84
585825,552,33.19
585840,545,33.84
585855,545,34.16
585870,536,33.84
585885,522,34.16
585900,520,33.84
585915,514,32.55
585930,505,34.16
585945,502,34.16
585960,496,33.84
585975,492,32.55
585990,485,33.84
586005,485,33.84
586020,491,31.26
586035,493,33.52
586050,500,33.84
586065,500,33.52
586080,499,33.84
586095,506,33.84
586110,508,32.55
586125,499,33.84
586140,502,33.52
586155,504,33.84
586170,506,34.48
586185,495,34.16
586200,498,33.84
586215,504,33.84
586230,499,33.84
586245,501,31.90
586260,493,33.84
586275,496,33.84
586290,497,32.55
586305,497,34.16
586320,497,32.87
586335,491,33.84
586350,495,34.16
586365,504,34.48
586380,513,32.23
586395,520,33.19
586410,527,34.16
586425,547,33.84
586440,554,32.55
586455,551,34.16
586470,565,32.55
586485,562,33.19
586500,555,33.84
586515,548,33.84
586530,540,33.84
586545,527,33.84
586560,520,33.84
586575,507,33.84
586590,497,34.16
586605,494,34.48
586620,492,33.84
586635,493,34.16
586650,494,32.55
586665,485,33.52
586680,486,33.84
586695,490,33.84
586710,494,33.84
586725,495,34.16
586740,505,33.84
586755,508,33.84
586770,506,32.55
586785,510,32.23
586800,509,33.84
586815,507,33.84
586830,498,33.52
586845,498,34.16
586860,503,33.52
586875,501,33.19
586890,497,33.84
586905,496,33.52
586920,488,33.84
586935,494,34.16
586950,493,33.52
586965,495,33.52
586980,496,31.90
586995,500,32.23
587010,499,33.84
587025,500,33.52
587040,503,32.23
587055,512,33.84
587070,523,32.55
587085,535,32.55
587100,548,33.84
587115,553,33.84
587130,558,33.84
587145,559,33.84
587160,555,33.52
587175,554,33.84
587190,545,33.52
587205,537,34.16
587220,533,34.16
587235,528,32.23
587250,522,33.84
587265,507,34.16
587280,504,33.52
587295,499,32.55
587310,496,32.55
587325,491,33.52
587340,492,32.55
587355,491,34.16
587370,496,34.16
587385,499,32.55
587400,501,33.84
587415,505,33.52
587430,505,32.55
587445,507,33.19
587460,505,34.16
587475,505,34.16
587490,506,33.52
587505,503,32.23
587520,502,33.19
587535,500,32.87
587550,501,32.23
587565,498,32.87
587580,495,33.84
587595,498,32.23
587610,500,32.55
587625,490,33.84
587640,494,34.16
587655,496,31.90
587670,498,33.84
587685,501,32.87
587700,493,33.52
587715,497,33.84
587730,509,32.23
587745,520,32.55
587760,526,33.19
587775,531,33.84
587790,549,34.80
587805,561,32.87
587820,566,32.55
587835,561,34.16
587850,564,32.55
587865,550,33.52
587880,551,32.87
587895,533,33.84
587910,523,34.16
587925,520,32.23
587940,509,33.84
587955,505,34.16
587970,502,33.84
587985,495,33.84
588000,499,33.84
588015,499,33.84
588030,494,33.52
588045,500,32.55
588060,491,33.52
588075,502,33.84
588090,498,33.84
588105,505,32.23
588120,499,33.52
588135,505,34.16
588150,506,34.16
588165,505,32.55
588180,508,33.84
588195,506,33.52
588210,498,33.52
588225,503,33.84
588240,503,33.84
588255,503,33.52
588270,504,34.16
588285,506,34.16
588300,501,34.16
588315,499,33.84
588330,503,34.16
588345,504,32.55
588360,501,33.84
588375,497,33.84
588390,496,33.19
588405,515,32.87
588420,525,32.87
588435,537,32.87
588450,553,33.19
588465,561,32.55
588480,556,33.84
588495,557,34.16
588510,562,33.52
588525,554,33.84
588540,542,33.84
588555,541,32.55
588570,536,32.55
588585,518,33.84
588600,516,33.84
588615,510,33.84
588630,504,32.23
588645,497,33.52
588660,488,34.16
588675,492,33.84
588690,492,34.16
588705,498,33.84
588720,498,33.52
588735,503,34.16
588750,504,34.16
588765,511,32.23
588780,511,32.23
588795,505,34.16
588810,501,35.77
588825,507,33.19
588840,509,32.87
588855,505,34.16
588870,504,34.16
588885,502,33.52
588900,507,33.52
588915,503,31.58
588930,503,32.87
588945,498,33.84
588960,496,34.48
588975,493,33.84
588990,488,33.84
589005,497,33.84
589020,498,34.16
589035,499,32.23
589050,504,32.87
589065,509,33.52
589080,525,33.84
589095,538,33.52
589110,548,33.84
589125,555,34.48
589140,565,34.16
589155,569,32.55
589171,565,34.16
589186,562,34.16
589201,557,33.84
589216,551,33.84
589231,547,32.87
589246,529,33.84
589262,526,34.16
589278,518,33.52
589293,498,33.52
589309,501,32.55
589324,491,34.16
589340,489,34.16
589356,493,34.48
589371,495,33.84
589387,495,33.52
589403,502,33.19
589418,506,33.52
589434,499,33.84
589449,509,33.84
589465,510,33.84
589481,513,32.23
589496,512,32.87
589512,509,32.55
589528,508,32.87
589543,506,33.84
589559,502,32.23
589574,493,34.16
589590,497,33.84
589606,500,33.19
589622,499,32.55
589638,491,33.52
589654,502,32.23
589669,493,33.84
589685,497,33.84
589701,496,34.48
589716,503,31.58
589732,500,34.16
589748,515,33.84
589764,533,33.84
589780,539,33.84
589796,561,32.87
589812,557,34.16
589828,569,34.16
589844,569,34.16
589860,562,33.84
589876,557,32.55
589892,548,32.23
589908,539,32.55
589924,521,33.84
589940,519,33.84
589956,509,33.84
589971,502,33.19
589987,498,32.55
590003,492,33.19
590019,493,31.90
590035,496,33.52
590051,498,32.87
590066,503,32.23
590082,503,34.16
590097,506,32.55
590113,506,33.52
590129,508,32.55
590144,510,35.13
590160,501,33.52
590176,502,32.55
590191,499,34.16
590207,495,33.52
590222,503,33.84
590238,500,32.23
590254,499,33.84
590269,501,33.19
590285,500,33.52
590301,499,33.84
590316,501,32.55
590331,491,33.84
590346,494,33.52
590362,498,34.16
590377,501,31.90
590393,498,33.84
590408,515,33.52
590424,519,33.19
590440,533,33.84
590455,547,34.16
590471,556,34.16
590486,562,33.84
590502,560,33.19
590518,572,32.55
590533,559,34.16
590549,545,33.84
590564,536,33.84
590579,532,32.87
590594,519,32.55
590609,512,32.23
590624,501,33.84
590640,497,33.19
590655,493,32.23
590670,488,33.52
590685,492,31.90
590700,494,32.55
590715,492,33.52
590730,499,33.84
590745,504,33.52
590760,504,33.19
590775,507,33.84
590790,507,31.58
590805,507,32.23
590821,506,33.19
590836,503,34.16
590851,504,32.55
590866,498,33.84
590881,502,34.16
590896,496,33.52
590911,498,34.16
590926,492,33.52
590941,493,33.52
590956,489,33.52
590971,491,33.84
590986,494,33.84
591001,500,34.16
591016,501,32.55
591031,504,32.23
591046,492,33.84
591061,502,33.84
591076,514,33.84
591091,527,33.52
591106,543,33.52
591121,556,32.55
591136,555,33.52
591151,570,32.55
591166,563,34.16
591181,567,33.84
591196,558,34.48
591211,550,34.16
591226,540,33.84
591241,522,34.16
591256,514,33.52
591271,514,32.87
591286,508,32.55
591301,502,34.16
591316,497,31.90
591331,494,32.55
591346,492,33.84
591361,485,33.84
591376,493,32.23
591391,491,34.16
591406,491,33.19
591421,502,33.84
591436,501,33.84
591451,501,34.16
591466,507,33.84
591481,506,34.16
591496,506,33.19
591511,504,32.23
591526,498,33.84
591541,502,33.19
591556,499,32.87
591571,494,34.16
591586,489,34.16
591601,492,33.52
591616,492,34.16
591632,499,33.19
591647,492,34.16
591662,494,33.52
591677,490,33.84
591692,496,32.87
591707,488,33.19
591723,491,33.52
591738,508,33.19
591753,513,33.52
591768,526,34.16
591783,546,34.16
591798,552,33.19
591814,567,32.87
591830,561,33.52
591845,564,32.23
591861,561,32.23
591876,548,34.16
591892,547,32.87
591908,525,34.80
591923,521,34.16
591939,516,32.23
591955,504,33.52
591970,506,33.19
591986,498,32.87
592001,488,33.52
592017,491,34.48
592033,490,33.84
592048,492,32.23
592064,494,33.84
592080,497,32.23
592096,496,34.16
592112,497,33.52
592128,503,32.87
592144,501,32.23
592160,499,33.84
592176,504,32.55
592192,502,32.87
592208,503,32.23
592224,500,33.19
592240,494,33.84
592256,499,33.84
592272,495,32.87
592288,499,32.23
592304,498,32.23
592320,500,33.84
592336,493,33.84
592352,495,33.84
592368,492,33.84
592384,500,33.19
592400,502,32.55
592415,501,33.19
592431,520,32.55
592447,534,32.55
592463,550,32.55
592479,549,33.52
592495,557,33.84
592510,563,32.55
592526,564,34.16
592542,558,33.19
592558,549,32.23
592574,540,31.58
592590,526,33.84
592605,518,33.19
592621,510,32.87
592637,506,32.87
592652,497,33.84
592668,490,33.52
592683,488,33.84
592699,494,33.52
592714,493,34.16
592730,490,33.52
592746,492,33.52
592761,504,32.23
592777,500,33.52
592793,509,34.16
592808,509,32.87
592824,507,33.19
592839,499,33.19
592855,495,34.16
592871,495,33.52
592886,501,32.23
592902,499,33.84
592917,502,32.55
592933,498,33.84
592949,493,34.48
592964,490,33.84
592980,500,32.87
592995,497,31.90
593010,488,33.19
593025,496,31.90
593040,496,33.52
593055,498,34.16
593071,502,33.84
593086,507,34.16
593101,528,33.84
593116,543,33.84
593131,545,34.16
593146,559,34.16
593161,554,33.84
593176,555,34.16
593191,552,33.84
593206,543,33.84
593221,533,33.84
593236,527,33.52
593251,526,29.97
593266,516,34.16
593281,509,32.23
593296,500,32.55
593311,490,33.52
593326,492,32.55
593341,484,33.52
593356,485,33.19
593371,494,33.84
593386,498,32.55
593401,493,33.52
593416,502,34.48
593431,503,33.52
593446,496,33.19
593461,504,32.23
593476,505,32.23
593491,502,33.19
593506,505,32.23
593521,506,32.55
593536,502,33.52
593551,503,33.19
593566,498,33.19
593581,503,32.87
593596,494,33.84
593611,499,31.90
593626,493,34.16
593641,497,33.84
593656,492,33.84
593671,491,33.52
593686,499,32.87
593701,495,33.84
593716,501,32.23
593731,505,32.23
593746,512,32.55
593761,521,33.84
593776,534,33.84
593791,548,34.16
593806,550,34.16
593821,556,34.16
593836,564,32.23
593852,562,32.87
593867,559,33.19
593882,540,33.84
593897,535,33.84
593912,524,33.84
593927,518,34.16
593942,512,31.90
593957,508,32.87
593972,502,33.52
593987,497,32.23
594002,497,31.58
594017,495,32.87
594033,498,33.19
594048,498,33.84
594063,505,33.19
594078,503,33.84
594093,507,32.87
594108,506,33.52
594124,506,33.19
594140,509,32.23
594155,503,33.84
594171,498,33.84
594186,497,33.52
594202,493,33.84
594218,502,32.87
594233,497,33.52
594249,500,32.23
594265,497,33.84
594280,493,33.84
594296,486,33.84
594311,495,33.19
594327,490,33.84
594343,491,34.16
594358,496,33.52
594374,499,32.23
594390,492,33.84
594405,508,34.16
594421,511,34.16
594436,530,34.16
594452,545,33.52
594468,556,33.52
594484,556,33.52
594500,566,34.16
594516,557,33.52
594532,560,32.23
594548,548,34.16
594564,535,33.19
594580,531,32.55
594596,511,33.84
594612,514,32.23
594628,501,32.23
594644,493,33.19
594660,486,33.52
594676,493,32.87
594691,485,34.16
594707,493,33.84
594723,497,32.23
594739,498,31.26
594755,492,33.52
594771,504,33.19
594786,508,32.23
594802,507,32.55
594818,501,33.84
594833,505,33.19
594849,508,33.19
594865,503,32.87
594881,499,33.52
594897,500,33.84
594913,493,32.87
594928,497,33.19
594944,490,33.19
594959,485,33.52
594975,496,32.55
594991,493,34.16
595006,488,33.84
595022,495,34.48
595038,497,33.84
595053,502,32.87
595069,504,34.16
595084,514,34.16
595100,532,34.80
595115,544,33.84
595131,556,32.87
595147,561,32.23
595163,564,32.23
595178,557,33.84
595193,553,34.16
595208,545,31.90
595223,530,33.84
595239,517,33.84
595255,515,33.19
595270,499,33.84
595286,502,34.16
595302,498,33.52
595317,493,31.90
595333,493,32.87
595348,495,33.52
595364,495,34.16
595380,499,32.55
595395,498,32.55
595411,504,32.87
595426,494,34.16
595441,498,33.84
595456,508,33.52
595471,507,32.55
595486,506,32.23
595502,502,32.55
595517,507,32.55
595532,501,32.55
595547,498,32.23
595562,493,33.84
595577,493,34.16
595592,490,34.16
595607,493,33.84
595622,496,33.84
595637,485,34.16
595652,490,33.52
595667,494,33.84
595682,504,34.16
595697,498,34.48
595712,510,33.52
595727,521,32.23
595742,529,34.16
595757,546,34.16
595772,553,32.23
595787,560,33.52
595802,563,33.84
595817,559,34.16
595832,549,32.87
595847,552,33.52
595862,540,33.52
595877,528,33.19
595892,515,34.16
595907,513,33.52
595922,497,33.52
595937,497,33.52
595952,494,33.84
595967,493,33.84
595982,497,33.84
595997,493,33.84
596012,500,33.84
596027,489,33.84
596042,499,32.55
596057,502,32.23
596072,502,34.16
596087,500,33.52
596102,509,33.84
596117,500,34.16
596132,504,33.84
596147,506,32.55
596162,495,33.84
596177,500,32.55
596192,495,33.84
596207,499,33.52
596222,494,33.84
596237,492,33.84
596252,489,33.84
596267,492,33.84
596282,497,32.23
596297,493,33.19
596312,492,34.16
596327,492,33.19
596342,498,32.23
596357,494,33.19
596372,514,32.23
596387,518,33.84
596402,540,33.84
596417,544,33.84
596432,557,33.84
596447,565,32.55
596462,566,32.23
596477,559,34.16
596492,557,33.52
596507,542,34.16
596522,538,33.52
596537,526,33.52
596552,526,32.87
596567,518,31.90
596582,508,33.84
596597,497,33.84
596612,497,34.16
596627,496,33.52
596642,484,33.52
596657,489,32.55
596672,493,33.84
596687,491,33.19
596702,502,32.55
596717,501,33.84
596732,506,33.84
596747,500,33.84
596762,499,33.52
596777,496,33.52
596792,503,33.19
596807,494,33.84
596822,503,32.55
596837,501,32.87
596852,500,34.16
596867,500,33.52
596882,496,34.16
596897,492,33.19
596912,500,32.55
596927,494,33.84
596942,497,32.87
596957,492,35.13
596972,493,32.87
596987,501,33.52
597002,496,33.84
597017,509,33.84
597032,520,32.55
597047,532,33.19
597062,544,32.23
597077,544,33.84
597092,554,33.84
597107,555,33.52
597122,563,33.19
597137,557,33.19
597152,552,32.87
597167,539,34.16
597182,536,33.52
597197,526,34.16
597212,515,32.87
597227,506,33.52
597242,499,33.19
597257,487,34.16
597272,486,33.52
597287,484,33.84
597302,490,33.84
597317,487,33.52
597332,498,33.52
597347,501,32.23
597362,502,32.55
597377,503,33.52
597392,503,33.84
597407,504,34.16
597422,507,33.52
597437,505,32.23
597452,503,33.52
597467,502,32.87
597482,497,33.52
597497,505,31.90
597512,495,33.52
597527,502,33.84
597542,500,32.23
597557,491,32.87
597572,497,32.55
597587,499,33.52
597602,497,33.52
597617,501,32.87
597632,499,32.55
597647,496,33.52
597662,507,32.87
597677,518,33.84
597692,521,33.52
597707,544,33.52
597722,551,33.19
597737,555,33.84
597752,555,33.84
597767,553,34.16
597782,555,34.16
597797,547,32.87
597812,537,33.84
597827,530,32.55
597842,519,32.55
597857,510,34.48
597872,504,33.84
597887,497,32.55
597902,488,33.84
597917,494,34.16
597933,494,34.16
597948,496,32.23
597963,501,31.90
597978,499,33.52
597993,500,34.16
598008,500,34.16
598023,506,32.55
598038,499,33.52
598053,499,33.84
598068,507,33.19
598083,505,34.16
598098,505,33.52
598113,495,33.52
598128,494,33.84
598143,493,33.84
598158,495,35.13
598173,497,32.87
598188,496,32.55
598203,487,33.52
598218,495,33.84
598233,496,32.23
598248,493,34.16
598263,494,33.84
598278,491,33.84
598293,501,32.55
598308,516,33.52
598323,512,34.16
598338,533,33.84
598353,548,33.52
598368,558,33.84
598383,566,32.55
598398,565,33.84
598413,562,33.84
598428,554,34.16
598443,544,34.16
598458,541,33.84
598473,535,32.55
598488,524,33.84
598503,517,32.87
598518,505,33.84
598533,504,33.84
598548,499,32.87
598563,488,33.84
598578,487,33.52
598593,488,33.52
598608,494,32.55
598623,489,33.52
598638,496,33.84
598653,499,34.16
598668,498,33.19
598683,501,33.52
598698,504,34.48
598713,496,33.52
598728,502,33.84
598743,500,33.84
598758,499,32.23
598773,500,31.90
598788,498,33.84
598803,501,33.84
598818,500,32.55
598833,501,32.23
598848,497,34.80
598863,500,32.55
598878,498,32.23
598893,497,34.16
598908,496,32.87
598923,492,33.84
598938,497,34.16
598953,495,33.19
598968,504,33.19
598983,521,32.23
598998,533,34.16
599013,538,33.84
599028,544,33.52
599043,553,34.16
599058,556,33.84
599073,559,33.84
599088,551,33.84
599103,554,32.23
599118,546,32.87
599133,539,33.84
599148,529,33.19
599163,518,33.19
599178,509,32.87
599193,502,33.84
599208,493,33.52
599223,482,33.84
599238,494,33.52
599253,490,33.19
599268,495,33.52
599283,497,33.19
599298,499,33.52
599313,495,33.52
599328,503,32.23
599343,500,32.55
599358,496,33.19
599373,504,33.52
599388,505,33.84
599403,504,33.84
599418,502,34.16
599433,504,33.84
599448,500,34.16
599463,503,32.23
599478,491,33.84
599493,496,32.55
599508,494,33.84
599523,491,34.16
599538,498,34.16
599553,492,33.52
599568,498,33.19
599583,498,33.84
599598,502,32.55
599613,496,34.16
599628,497,34.16
599643,510,32.87
599658,520,33.19
599673,526,33.84
599688,538,33.52
599703,556,32.55
599718,557,33.19
599733,566,33.52
599748,558,33.84
599763,556,33.84
599778,547,34.16
599793,540,33.84
599808,532,33.19
599823,521,33.52
599838,519,33.84
599853,509,34.48
599868,506,33.19
599883,494,33.52
599898,495,33.52
599913,484,33.84
599929,490,33.19
599944,486,34.16
599960,483,33.84
599975,495,33.84
599990,493,34.16
600005,493,33.52
600020,501,33.84
600035,502,32.23
600051,507,33.84
600067,509,32.23
600082,507,32.87
600098,504,33.19
600113,506,32.23
600128,501,33.19
600143,498,34.48
600158,492,33.52
600173,488,33.84
600189,495,32.87
600205,498,34.16
600220,496,33.52
600236,497,32.23
600251,498,32.23
600267,493,33.84
600283,499,33.52
600298,515,32.87
600314,525,34.16
600330,541,32.87
600345,553,32.23
600361,558,32.23
600376,561,32.55
600392,554,33.52
600408,547,34.16
600423,548,31.90
600439,537,33.84
600455,523,33.84
600471,523,33.52
600487,509,33.84
600503,505,33.84
600519,499,32.55
600534,494,33.52
600550,492,33.84
600566,486,33.84
600582,498,32.23
600598,498,34.16
600614,496,34.16
600630,495,33.84
600646,503,34.48
600662,499,33.52
600678,506,34.16
600694,506,32.87
600709,499,33.52
600725,503,32.55
600741,494,33.84
600756,500,32.87
600772,501,33.84
600787,499,33.84
600803,500,31.58
600819,501,33.84
600834,495,33.52
600850,500,32.55
600866,499,33.52
600881,501,34.16
600897,491,33.52
600912,497,33.84
600928,503,32.55
600943,505,33.84
600958,515,33.52
600974,535,34.16
600989,550,32.87
601005,562,34.48
601020,560,33.84
601036,568,33.84
601052,567,33.19
601067,561,33.52
601083,549,33.52
601098,538,33.84
601114,531,34.48
601130,523,32.55
601145,510,33.84
601161,504,31.90
601176,496,33.52
601191,479,33.52
601206,492,33.84
601221,485,33.84
601236,496,31.58
601252,490,33.52
601267,496,34.16
601282,503,33.19
601297,503,32.55
601312,498,33.84
601327,505,33.84
601342,506,33.84
601357,505,32.87
601372,509,32.55
601387,508,32.87
601402,506,31.58
601417,505,31.90
601433,493,33.84
601448,498,33.84
601463,498,34.16
601478,495,34.16
601493,490,33.19
601508,497,32.55
601523,496,33.52
601538,492,34.16
601553,492,34.80
601568,495,33.84
601583,503,34.16
601598,507,34.48
601613,525,33.84
601628,533,33.52
601643,548,34.16
601658,550,33.84
601673,562,33.84
601688,559,33.84
601703,560,33.19
601718,562,32.23
601733,553,33.84
601748,543,34.16
601763,531,32.55
601778,522,32.23
601793,509,34.16
601808,501,33.52
601823,500,33.84
601838,496,32.23
601853,485,34.16
601868,494,32.23
601883,494,34.16
601898,496,32.55
601913,497,32.23
601928,498,33.52
601943,504,32.55
601958,499,33.84
601973,502,33.84
601988,502,33.52
602003,501,33.84
602018,500,33.84
602033,505,33.84
602048,508,32.23
602063,493,34.16
602078,500,32.55
602093,497,34.16
602108,492,33.84
602123,499,32.87
602138,499,33.19
602153,498,32.23
602168,499,33.84
602183,503,33.84
602198,502,31.90
602213,494,33.19
602228,503,33.84
602243,507,34.16
602258,515,33.52
602273,526,33.84
602288,547,33.52
602303,559,33.84
602318,559,33.84
602334,563,33.19
602349,565,32.23
602365,558,33.84
602380,545,33.84
602395,536,33.84
602410,530,33.84
602425,513,33.84
602440,502,34.16
602456,506,32.87
602472,497,32.87
602487,489,34.48
602502,488,33.84
602517,497,32.55
602533,487,33.52
602548,499,32.23
602563,502,32.23
602578,502,33.52
602593,503,32.55
602608,510,31.90
602624,506,33.19
602640,511,33.19
602655,510,34.16
602671,504,33.52
602686,506,34.16
602702,507,32.55
602718,503,32.23
602733,504,31.90
602749,503,32.23
602765,493,33.52
602780,501,32.23
602796,488,33.52
602811,488,33.19
602827,491,32.87
602843,494,33.84
602859,494,33.84
602875,507,32.23
602891,517,31.90
602907,531,33.84
602922,538,33.19
602938,550,33.84
602954,562,32.55
602970,560,33.84
602986,565,34.16
603001,564,33.52
603017,549,34.16
603033,547,32.55
603049,528,33.52
603065,522,34.48
603081,513,33.52
603097,501,33.52
603113,498,32.55
603129,487,33.84
603145,494,31.90
603161,489,34.48
603177,488,34.16
603193,494,33.84
603208,503,31.90
603224,504,32.55
603240,506,33.84
603256,509,32.23
603272,501,33.84
603288,506,33.84
603303,499,33.52
603319,508,32.55
603334,507,33.19
603350,503,32.23
603366,498,33.52
603381,501,32.87
603397,499,34.16
603412,497,32.23
603428,487,33.84
603444,492,33.84
603459,495,33.19
603475,493,33.52
603491,495,33.84
603506,505,34.16
603522,520,32.87
603537,523,33.84
603553,540,33.52
603569,560,32.55
603584,566,33.84
603600,562,34.16
603615,561,32.87
603631,561,33.52
603647,554,31.90
603662,538,33.84
603678,531,32.87
603693,522,33.84
603708,518,32.55
603723,509,31.90
603739,503,34.16
603754,496,32.87
603769,490,34.16
603784,492,33.52
603799,493,34.16
603814,492,33.84
603829,490,33.52
603844,500,31.90
603859,497,34.16
603874,491,33.84
603890,508,33.19
603905,499,33.84
603920,507,34.16
603935,507,33.52
603950,497,33.84
603965,505,32.23
603980,503,32.55
603995,499,33.84
604010,500,33.52
604025,491,33.84
604040,498,33.84
604055,500,31.58
604070,498,33.84
604085,500,32.55
604100,496,31.90
604115,498,32.87
604130,500,31.90
604145,497,34.16
604160,505,33.52
604175,528,32.87
604190,539,33.84
604205,553,33.19
604220,556,33.52
604235,573,32.55
604250,573,32.23
604265,571,33.84
604280,564,34.16
604295,551,33.52
604310,543,31.90
604325,523,33.84
604340,524,32.55
604355,512,31.90
604370,503,32.55
604385,490,33.84
604400,488,33.52
604415,489,34.16
604430,489,31.90
604445,489,32.23
604460,483,33.19
604475,492,33.52
604490,495,33.84
604505,500,33.84
604520,503,33.52
604535,504,33.84
604550,508,31.90
604565,508,32.23
604580,506,33.84
604595,497,33.52
604610,502,33.84
604625,501,34.16
604640,492,33.52
604655,492,33.52
604670,498,33.52
604685,490,33.52
604700,495,34.80
604715,488,33.84
604730,494,34.16
604745,492,34.48
604760,486,33.52
604775,497,33.84
604790,505,30.94
604805,513,33.84
604820,528,33.84
604835,546,33.52
604850,555,33.84
604865,568,32.55
604880,573,33.19
604895,572,33.84
604910,564,33.84
604925,554,33.84
604940,548,33.84
604955,537,32.55
604970,527,33.84
604985,513,33.52
605000,509,32.87
605015,494,33.19
605030,493,33.52
605045,487,33.52
605060,487,33.84
605075,488,34.16
605090,485,33.84
605106,486,33.52
605121,499,33.19
605136,504,32.87
605151,501,33.19
605167,505,33.84
605182,506,32.55
605198,499,33.52
605214,507,32.23
605229,499,34.16
605245,499,33.84
605261,501,32.87
605276,495,33.52
605292,496,33.84
605307,499,34.16
605322,498,34.16
605337,498,32.55
605353,501,32.23
605369,503,32.23
605384,500,32.55
605400,493,33.84
605415,492,33.52
605431,505,32.23
605447,515,33.19
605462,516,33.52
605478,537,31.90
605494,552,33.84
605509,556,34.16
605525,566,32.55
605541,562,32.55
605556,562,33.52
605572,554,33.84
605587,538,33.52
605603,535,33.84
605619,524,32.87
605635,505,33.52
605651,506,32.23
605667,495,33.84
605683,494,34.16
605699,483,33.84
605715,485,33.52
605731,481,33.84
605747,490,33.84
605763,494,34.16
605779,490,33.52
605795,503,33.84
605811,501,32.87
605827,497,33.52
605842,506,32.55
605858,503,33.52
605874,502,32.23
605890,501,33.84
605906,492,33.52
605922,499,32.55
605937,498,32.55
605952,496,33.52
605967,493,33.84
605983,496,31.90
605998,500,32.23
606014,496,32.87
606029,496,32.55
606045,499,33.84
606061,503,32.87
606076,504,33.52
606092,518,33.52
606107,534,31.90
606122,546,32.23
606138,551,33.52
606153,565,33.84
606169,573,33.19
606184,566,34.16
606200,560,32.87
606216,548,34.16
606231,544,32.87
606247,531,33.84
606262,520,34.16
606277,511,32.23
606292,504,33.19
606308,496,32.55
606323,484,33.84
606338,483,32.87
606353,484,33.19
606368,484,33.84
606383,487,34.16
606398,494,33.84
606413,496,33.52
606428,497,33.52
606443,494,34.16
606458,503,34.48
606473,505,33.52
606488,506,32.55
606503,500,33.84
606519,505,33.84
606534,496,33.52
606549,501,32.55
606564,501,33.52
606579,498,33.84
606594,497,33.84
606609,488,33.52
606624,495,32.55
606639,496,33.52
606654,494,32.87
606669,495,33.52
606684,500,33.52
606699,492,33.52
606714,501,34.16
606729,509,33.52
606744,523,33.84
606759,542,32.55
606774,554,32.55
606789,559,34.16
606804,568,33.84
606819,570,33.19
606834,564,32.23
606849,556,33.52
606864,549,32.23
606879,531,33.52
606894,519,33.52
606909,513,33.19
606924,509,33.52
606939,501,34.16
606954,492,34.16
606969,492,32.55
606984,485,33.19
606999,482,33.52
607014,491,33.19
607029,493,33.84
607044,494,32.55
607059,499,32.87
607074,500,34.16
607089,502,34.16
607104,500,33.19
607119,500,33.52
607134,510,34.16
607149,509,34.16
607164,506,33.52
607179,497,33.84
607194,500,33.52
607209,496,33.19
607224,492,33.84
607239,495,32.87
607254,496,32.87
607269,495,32.55
607284,494,33.84
607299,493,34.16
607314,487,33.52
607329,485,33.84
607344,499,33.52
607359,492,33.52
607374,505,34.16
607389,525,33.84
607404,538,34.16
607419,550,34.16
607434,562,33.52
607449,568,32.23
607464,561,33.84
607479,562,32.55
607494,552,33.84
607509,541,33.84
607524,536,33.84
607539,519,34.16
607554,508,33.84
607569,508,32.87
607584,499,33.52
607599,485,33.52
607614,492,31.90
607629,482,34.16
607644,487,34.16
607659,487,34.48
607675,490,33.84
607690,496,32.87
607705,503,31.90
607720,503,31.90
607736,507,33.84
607751,510,33.19
607766,511,33.84
607781,508,32.23
607796,506,33.84
607811,504,33.84
607826,502,32.23
607841,497,33.52
607857,500,32.23
607873,494,33.84
607888,488,33.84
607904,491,33.84
607919,496,34.16
607934,496,34.16
607949,495,34.48
607964,494,33.52
607979,500,32.87
607995,500,33.84
608011,505,33.52
608026,519,33.84
608042,533,34.48
608057,540,33.52
608073,560,32.55
608089,557,32.55
608105,561,33.84
608120,551,33.52
608135,548,33.52
608151,542,32.87
608167,525,33.84
608183,523,33.19
608199,513,32.23
608215,503,33.84
608231,494,33.52
608247,492,33.84
608263,488,34.16
608279,487,32.55
608295,485,31.90
608311,483,33.84
608326,486,33.52
608342,490,33.52
608358,492,33.52
608374,497,33.52
608389,506,31.90
608405,505,33.19
608420,508,31.58
608436,503,32.55
608452,499,32.87
608467,506,33.19
608483,504,33.52
608498,497,32.55
608514,498,33.52
608530,488,33.84
608545,494,34.16
608561,496,33.52
608577,494,34.16
608592,497,32.55
608608,491,33.19
608623,500,33.52
608639,507,32.87
608654,519,31.90
608670,531,34.16
608686,545,31.90
608701,550,34.48
608717,565,34.16
608732,568,32.23
608747,564,34.16
608762,554,33.84
608777,552,32.87
608792,540,33.84
608808,531,33.84
608823,520,33.84
608838,506,33.84
608853,509,32.55
608868,495,33.84
608883,495,34.16
608898,494,33.84
608913,489,33.84
608928,489,33.52
608943,490,32.87
608958,493,31.90
608973,495,33.52
608989,491,34.16
609004,500,32.55
609019,507,32.55
609034,500,33.84
609049,499,34.16
609064,505,33.19
609079,503,33.19
609094,501,33.19
609109,501,32.23
609124,499,31.90
609139,491,33.19
609154,494,33.52
609169,499,33.19
609184,489,33.84
609199,496,31.90
609214,494,33.84
609229,493,33.19
609244,493,33.84
609259,496,32.87
609274,498,31.90
609289,506,32.55
609304,515,33.84
609319,530,34.16
609334,538,33.84
609349,547,33.84
609364,558,34.16
609379,560,34.48
609394,564,32.55
609409,550,33.84
609424,549,33.52
609439,542,33.84
609454,536,33.52
609469,532,32.23
609484,521,34.48
609499,505,33.84
609514,496,33.52
609529,487,33.84
609544,483,33.52
609559,479,33.84
609574,487,34.16
609589,486,33.84
609604,493,32.55
609619,498,36.74
609634,498,32.55
609649,502,33.52
609664,503,33.52
609679,500,33.52
609694,505,32.55
609709,504,32.55
609724,498,33.84
609739,500,34.16
609754,497,33.84
609769,499,33.84
609784,505,31.90
609799,495,33.84
609814,496,33.84
609829,493,33.84
609844,498,33.84
609859,496,32.55
609874,498,33.84
609889,496,31.90
609904,499,32.55
609919,500,32.55
609934,501,33.52
609949,508,33.84
609964,524,32.55
609979,535,33.52
609994,546,31.58
610009,553,31.90
610024,550,33.52
610039,561,32.87
610054,552,33.52
610069,549,33.84
610084,553,32.23
610099,542,31.90
610114,534,34.16
610129,517,33.84
610144,503,33.84
610159,503,33.84
610174,496,33.84
610189,490,32.23
610204,490,34.48
610219,492,32.87
610234,486,33.52
610249,497,32.55
610264,495,33.52
610279,496,33.84
610294,500,33.84
610309,506,33.84
610324,498,33.84
610339,495,33.52
610354,503,33.84
610369,509,31.90
610384,506,33.84
610399,503,33.84
610414,497,33.19
610429,502,31.90
610444,498,32.23
610459,496,33.84
610474,497,32.23
610489,492,33.84
610504,492,32.87
610519,499,33.19
610534,498,34.16
610549,502,32.23
610564,497,33.84
610579,504,33.84
610594,513,33.19
610609,523,32.23
610624,537,31.90
610639,544,33.52
610654,558,32.87
610669,562,34.48
610684,563,32.55
610699,560,32.55
610714,554,32.55
610729,545,33.19
610744,529,34.16
610759,527,31.90
610774,515,33.52
610789,507,33.84
610804,496,34.16
610819,496,33.84
610834,490,33.84
610849,492,33.52
610864,493,34.16
610879,488,34.16
610894,489,33.52
610909,493,33.84
610924,493,34.16
610939,497,33.84
610954,504,33.19
610969,503,33.52
610984,508,33.19
610999,499,33.84
611014,502,33.84
611029,500,33.52
611044,497,33.19
611059,498,34.16
611074,497,34.16
611089,499,33.52
611104,501,32.55
611119,502,33.84
611134,491,33.52
611149,499,34.16
611164,493,32.87
611179,496,32.55
611194,489,33.52
611209,494,34.16
611224,500,33.84
611239,516,33.84
611254,528,34.16
611269,542,33.19
611284,554,33.84
611299,558,33.84
611314,566,34.16
611329,568,32.55
611344,564,32.23
611359,557,32.23
611374,544,33.84
611389,541,32.23
611404,530,33.84
611419,521,32.23
611434,505,33.84
611449,512,33.19
611464,500,32.55
611479,484,33.52
611494,489,33.84
611509,489,33.84
611524,491,34.16
611539,493,33.52
611554,500,32.87
611569,504,32.55
611584,498,33.52
611599,500,32.23
611614,508,34.16
611629,507,32.87
611644,504,34.16
611659,498,33.84
611674,502,32.55
611689,495,33.52
611704,499,33.52
611719,502,32.55
611734,497,33.84
611749,499,34.16
611764,491,33.84
611779,491,33.84
611794,495,34.16
611809,491,33.84
611824,495,33.84
611839,497,32.23
611854,500,33.52
611869,505,33.19
611884,514,31.90
611899,522,33.84
611914,533,33.19
611929,548,34.48
611944,552,34.16
611959,564,34.16
611974,567,33.84
611989,560,33.84
612004,559,33.19
612019,550,33.84
612034,545,33.52
612049,536,32.87
612064,519,33.52
612079,512,34.48
612094,500,33.52
612109,493,33.84
612124,493,33.84
612139,493,33.52
612154,494,33.84
612169,489,34.80
612184,500,32.23
612199,501,32.23
612214,495,33.19
612229,503,33.84
612244,498,33.52
612259,501,34.16
612274,503,33.84
612289,507,33.19
612304,504,32.55
612319,498,33.84
612334,506,34.16
612349,503,34.16
612364,494,33.84
612379,501,31.90
612394,499,33.52
612409,496,33.84
612424,496,33.52
612439,495,32.87
612454,499,32.23
612469,492,33.52
612484,499,34.16
612499,507,33.84
612514,505,34.16
612529,505,34.16
612544,512,32.23
612559,520,33.84
612574,539,33.52
612589,548,32.23
612604,562,32.55
612619,564,32.87
612634,570,34.16
612649,562,33.52
612664,556,34.16
612679,552,32.87
612694,540,32.55
612709,529,33.84
612724,518,33.84
612739,510,33.84
612754,501,34.16
612769,495,32.23
612784,494,32.87
612799,494,34.16
612814,492,34.16
612829,485,33.84
612844,495,33.84
612859,495,31.90
612874,493,33.19
612889,505,33.19
612904,505,33.52
612919,512,33.84
612934,508,33.52
612949,515,32.87
612964,504,33.19
612979,501,33.52
612994,507,31.90
613009,494,33.19
613024,503,32.87
613039,500,32.55
613054,499,33.84
613069,493,33.52
613084,500,32.23
613099,496,33.52
613114,503,32.23
613129,499,34.16
613144,498,32.55
613159,502,33.84
613174,499,33.52
613189,517,34.48
613204,525,33.84
613219,538,33.84
613234,557,32.87
613249,565,33.84
613264,567,32.55
613279,561,34.16
613294,561,32.87
613309,555,32.55
613324,545,32.87
613339,537,34.48
613354,522,33.84
613369,512,33.52
613384,506,33.84
613399,505,32.87
613414,499,33.52
613429,485,33.52
613444,491,31.90
613459,485,33.52
613474,490,33.84
613489,497,32.23
613504,496,33.52
613519,496,33.84
613534,499,33.84
613549,506,33.84
613564,505,33.84
613579,509,33.19
613594,500,34.16
613609,505,31.90
613624,502,32.23
613639,497,34.16
613654,502,33.19
613669,494,31.90
613684,496,33.52
613699,495,34.16
613714,501,34.16
613729,502,32.55
613744,497,33.84
613759,498,34.16
613774,496,32.87
613789,489,33.52
613804,499,33.84
613819,504,34.16
613834,516,32.55
613849,521,34.16
613864,544,33.52
613879,554,33.84
613894,562,33.19
613909,566,33.19
613924,558,33.52
613939,567,32.55
613954,560,31.90
613969,544,32.87
613984,543,34.16
613999,534,32.87
614014,523,31.90
614029,506,33.84
614044,507,33.84
614059,495,34.16
614074,490,32.23
614089,486,32.87
614104,482,33.84
614119,486,33.19
614134,497,33.84
614149,499,33.84
614164,503,32.87
614179,507,33.84
614194,500,33.19
614209,507,33.19
614224,510,33.52
614239,509,33.52
614254,508,33.52
614269,508,32.55
614284,497,32.87
614299,504,33.84
614314,501,32.55
614329,492,32.23
614344,491,33.84
614359,487,33.84
614374,496,33.84
614389,497,33.84
614404,496,34.48
614419,491,34.16
614434,498,33.52
614449,502,33.19
614464,507,33.84
614479,514,33.84
614494,526,33.52
614509,535,31.90
614524,552,33.52
614539,561,33.84
614554,561,33.19
614569,562,33.84
614584,563,33.84
614599,555,33.84
614614,555,33.52
614629,542,32.87
614644,534,31.90
614659,516,33.84
614674,513,33.19
614689,505,34.16
614704,499,33.84
614719,495,33.84
614734,492,32.23
614749,492,32.55
614764,497,33.19
614779,496,33.84
614794,497,34.16
614809,500,33.19
614824,503,32.55
614839,500,33.52
614854,506,33.84
614869,506,32.23
614884,511,32.23
614899,510,34.48
614914,507,33.52
614929,497,34.16
614944,495,33.84
614959,501,32.23
614974,497,32.55
614989,492,33.52
615004,498,33.52
615019,496,34.16
615034,500,32.23
615049,501,32.55
615064,498,33.52
615079,502,32.55
615094,501,32.87
615109,508,32.23
615124,519,32.55
615139,534,34.48
615154,548,33.52
615169,558,32.55
615184,563,33.84
615199,565,32.87
615214,562,32.87
615229,557,32.23
615244,547,32.23
615259,538,32.55
615274,527,32.23
615289,515,33.52
615304,507,34.16
615319,504,32.87
615334,495,34.80
615349,495,32.23
615364,486,33.84
615379,487,33.52
615394,494,31.90
615409,491,33.84
615424,498,31.90
615439,495,34.16
615454,504,32.55
615469,498,33.84
615484,509,32.55
615499,509,33.84
615514,511,32.55
615529,509,34.16
615544,507,32.55
615559,504,34.16
615574,501,32.55
615589,497,32.55
615604,501,33.52
615619,498,32.87
615634,498,33.84
615649,499,34.16
615664,493,33.52
615679,500,33.84
615694,497,32.87
615709,497,32.55
615724,494,33.84
615739,500,33.84
615754,516,34.16
615769,533,34.16
615784,546,33.52
615799,555,34.16
615814,566,34.16
615829,569,32.23
615844,566,34.16
615859,561,34.16
615874,556,34.16
615889,546,33.52
615904,537,33.19
615919,528,32.23
615934,520,34.16
615949,507,33.52
615964,505,32.23
615979,495,33.84
615994,495,32.87
616009,486,33.84
616024,491,32.55
616039,487,34.16
616054,487,33.84
616069,491,33.84
616084,498,33.52
616099,495,33.84
616114,503,33.52
616129,501,33.52
616144,499,33.19
616159,504,33.84
616174,501,33.84
616189,501,33.52
616204,501,32.87
616219,495,33.52
616234,493,33.84
616249,491,34.16
616264,495,33.52
616279,495,34.16
616294,497,33.52
616309,497,33.19
616324,497,31.90
616339,498,33.19
616354,491,33.52
616369,496,33.84
616384,506,32.87
616399,510,34.16
616414,531,33.52
616429,541,32.23
616444,553,32.55
616459,558,33.52
616474,557,33.84
616489,566,32.55
616504,563,34.16
616519,558,32.87
616534,552,33.19
616549,542,32.55
616564,533,32.55
616579,523,32.87
616594,509,33.84
616609,496,34.16
616624,495,31.90
616639,484,33.84
616654,483,33.52
616669,492,33.84
616684,493,32.55
616699,495,33.84
616714,491,33.84
616729,500,33.19
616744,494,33.84
616759,502,33.52
616774,505,33.52
616789,504,33.19
616804,498,33.84
616819,501,33.52
616834,505,33.84
616849,499,33.52
616864,503,33.84
616879,501,33.84
616894,500,32.55
616909,498,33.52
616924,498,33.52
616939,491,33.52
616954,498,32.87
616969,492,33.52
616984,494,33.52
616999,497,34.16
617014,500,34.16
617029,509,32.23
617044,515,31.90
617059,524,32.87
617074,534,33.52
617089,549,33.84
617104,553,33.84
617119,567,32.87
617134,558,33.84
617149,563,33.52
617164,558,32.23
617179,549,31.58
617194,539,31.90
617209,529,32.55
617224,511,34.16
617239,501,33.84
617254,496,33.84
617269,494,33.52
617284,491,34.16
617299,485,33.84
617314,487,33.84
617329,492,32.87
617344,497,34.16
617359,491,33.84
617374,501,32.23
617389,505,32.23
617404,505,32.55
617419,506,33.84
617434,507,32.55
617449,508,32.55
617464,499,33.84
617479,502,32.55
617494,501,32.23
617509,493,32.87
617524,491,33.52
617539,493,33.84
617554,498,32.55
617569,494,33.52
617584,499,31.90
617599,497,33.52
617614,501,32.55
617629,502,34.16
617644,493,34.16
617659,503,33.84
617674,509,33.84
617689,522,34.16
617704,540,34.16
617719,548,32.87
617734,557,32.23
617749,562,32.55
617764,553,33.52
617779,551,33.84
617794,552,32.87
617809,543,32.23
617824,531,32.23
617839,522,32.55
617854,508,34.48
617869,508,32.55
617884,501,32.87
617899,497,33.52
617914,494,33.84
617929,492,33.52
617944,493,34.16
617959,493,33.19
617974,493,34.16
617989,491,32.87
618004,503,33.84
618019,506,32.23
618034,505,33.84
618049,511,34.16
618064,505,33.52
618079,508,33.52
618094,502,33.84
618109,500,32.23
618124,495,33.52
618139,499,32.23
618154,499,32.23
618169,498,31.90
618184,495,33.52
618199,492,33.84
618214,498,32.55
618229,494,33.52
618244,493,33.52
618259,493,34.16
618274,497,33.19
618289,500,34.16
618304,513,33.52
618319,529,33.84
618334,542,34.16
618349,555,31.58
618364,555,33.52
618379,564,33.84
618394,560,34.16
618409,557,33.84
618425,550,33.84
618440,542,33.19
618455,533,34.16
618470,524,32.87
618485,518,32.87
618500,513,33.19
618516,501,31.90
618531,496,33.84
618546,487,33.84
618561,491,33.52
618576,492,33.84
618591,494,33.19
618607,494,33.52
618623,502,32.55
618638,495,33.52
618654,500,34.16
618669,504,33.52
618685,505,34.16
618701,508,32.23
618716,499,33.84
618732,500,33.19
618748,504,34.16
618763,493,33.84
618779,502,33.84
618794,501,32.23
618810,498,32.87
618826,497,33.84
618841,498,32.55
618857,490,33.19
618873,495,33.19
618889,494,34.16
618905,499,32.23
618921,499,33.84
618936,509,33.19
618952,524,34.16
618968,544,32.55
618983,546,33.52
618999,560,33.84
619015,564,32.23
619031,563,32.55
619047,553,34.16
619063,548,32.23
619079,536,33.84
619095,523,33.52
619111,517,33.52
619126,504,32.55
619142,494,33.52
619158,488,33.84
619174,492,33.84
619190,490,31.90
619206,485,33.84
619222,489,32.87
619238,500,34.16
619254,497,33.52
619270,501,32.23
619286,506,32.23
619302,505,32.55
619318,503,33.84
619333,507,34.16
619349,507,33.84
619365,501,33.52
619381,498,33.84
619397,502,32.55
619413,503,32.87
619428,500,33.84
619444,495,33.84
619460,490,34.16
619476,489,33.84
619492,494,33.84
619508,496,33.84
619523,500,32.23
619539,494,33.52
619554,502,34.16
619570,507,33.84
619586,528,31.90
619601,539,33.52
619617,547,33.84
619633,557,33.84
619648,562,33.52
619664,560,33.19
619679,547,33.84
619695,548,33.84
619710,538,32.55
619726,524,33.19
619742,512,33.84
619757,504,33.19
619773,490,33.84
619789,496,31.90
619804,488,34.48
619820,488,33.84
619835,491,32.87
619851,493,32.55
619867,495,32.55
619882,502,31.90
619897,504,32.87
619912,502,34.16
619928,505,33.84
619943,497,33.52
619958,500,33.52
619973,506,32.87
619989,495,33.84
620004,503,34.16
620019,500,34.16
620034,502,33.84
620049,502,34.48
620064,502,31.26
620079,502,32.87
620094,499,32.87
620109,494,34.16
620124,491,33.84
620140,493,33.84
620155,496,32.55
620170,498,34.16
620185,509,31.90
620200,520,32.55
620215,522,33.84
620230,543,32.23
620245,554,33.84
620260,556,33.84
620275,563,31.90
620290,555,33.52
620305,556,32.23
620320,550,32.87
620335,541,32.23
620350,528,34.16
620365,517,33.84
620380,514,33.52
620395,502,33.52
620410,489,33.52
620425,493,33.19
620440,481,34.16
620455,491,32.87
620470,490,32.55
620485,487,33.19
620500,492,33.52
620515,495,33.84
620530,496,33.52
620545,502,31.58
620560,504,32.87
620575,504,34.16
620590,500,34.16
620605,494,34.16
620620,496,33.84
620635,501,34.48
620650,495,33.84
620665,499,33.84
620680,502,32.23
620695,500,32.55
620710,499,32.55
620725,495,33.84
620740,500,32.87
620755,490,33.84
620770,495,33.52
620785,495,33.52
620800,503,33.52
620815,498,33.84
620830,514,33.84
620845,521,33.52
620860,530,34.16
620875,535,33.84
620890,554,33.84
620905,563,32.55
620920,557,33.52
620935,555,33.84
620951,557,34.16
620966,547,33.52
620981,532,33.52
620996,527,33.84
621011,518,34.16
621026,512,32.23
621042,500,33.84
621057,496,32.55
621072,491,33.84
621087,492,33.84
621102,492,32.55
621117,491,34.16
621133,496,34.16
621149,496,33.84
621164,502,32.23
621180,506,32.23
621196,500,33.19
621211,506,32.87
621227,508,32.23
621242,499,33.52
621258,495,34.16
621274,502,32.23
621289,502,32.23
621305,495,32.55
621321,491,33.52
621336,499,32.55
621352,495,33.19
621367,499,33.52
621383,503,33.84
621399,499,31.90
621415,500,34.16
621431,501,32.87
621447,496,33.19
621462,503,32.55
621478,506,33.19
621494,514,33.52
621510,523,33.52
621526,542,33.19
621542,555,33.52
621558,556,33.84
621574,559,33.84
621590,553,33.52
621606,553,33.84
621622,547,32.23
621638,534,33.84
621654,519,33.84
621670,512,34.16
621686,504,33.52
621702,499,33.84
621718,496,32.23
621734,488,33.84
621750,485,33.84
621766,488,33.52
621782,496,33.84
621798,498,32.87
621814,503,32.55
621829,506,32.87
621845,504,34.16
621861,511,32.55
621877,501,33.84
621893,509,33.19
621909,505,32.55
621924,502,32.87
621940,501,33.84
621955,495,33.84
621971,497,33.84
621987,490,33.52
622002,502,31.58
622018,500,34.16
622034,501,32.23
622049,500,34.16
622065,497,33.52
622080,500,32.55
622096,493,33.52
622111,501,32.87
622127,511,32.87
622143,517,34.16
622158,522,33.84
622174,539,33.84
622190,548,33.84
622205,557,31.90
622221,556,34.48
622236,549,33.19
622252,551,32.55
622268,542,33.52
622283,532,32.55
622299,524,32.55
622314,515,33.52
622329,507,32.23
622344,498,33.84
622359,490,33.84
622374,490,32.23
622390,488,33.84
622405,488,33.52
622420,490,33.84
622435,488,34.48
622450,499,33.84
622465,496,33.19
622480,506,31.90
622495,506,33.84
622510,509,32.87
622525,506,32.23
622540,500,33.52
622555,505,31.90
622571,503,32.87
622586,493,33.52
622601,502,33.52
622616,503,31.90
622631,501,33.84
622646,500,33.84
622661,499,32.55
622676,497,33.84
622691,487,33.84
622706,488,33.84
622721,499,32.55
622736,498,33.84
622751,498,33.84
622766,512,32.55
622781,520,33.84
622796,531,32.23
622811,534,33.84
622826,553,32.55
622841,550,34.16
622856,561,32.55
622871,559,33.84
622886,548,33.52
622901,545,33.84
622916,539,34.48
622931,534,33.84
622946,522,33.52
622961,516,33.84
622976,505,34.16
622991,495,34.16
623006,489,33.52
623021,492,33.84
623036,490,31.90
623051,493,32.23
623066,494,33.84
623081,496,33.52
623096,505,32.23
623111,506,33.19
623126,504,33.84
623141,505,33.52
623156,507,32.23
623171,506,32.23
623186,501,33.84
623201,498,33.84
623216,504,33.52
623231,497,33.19
623246,497,34.48
623262,499,33.84
623278,498,34.16
623293,495,34.16
623308,495,33.52
623323,488,34.16
623339,490,33.19
623354,496,33.52
623369,498,34.16
623384,501,33.52
623399,494,34.16
623414,507,32.23
623430,510,34.16
623446,526,34.16
623461,535,34.16
623477,549,34.48
623492,551,33.84
623508,557,33.52
623524,564,32.55
623539,556,34.16
623555,556,32.55
623571,547,32.87
623586,542,32.23
623602,529,34.16
623617,515,33.84
623633,514,32.55
623649,500,33.19
623664,507,33.52
623680,496,31.90
623696,492,34.48
623711,493,32.87
623727,487,34.16
623742,496,33.84
623758,494,34.16
623774,502,32.55
623790,503,32.55
623806,504,31.90
623822,504,33.84
623837,504,34.16
623853,507,34.16
623869,499,33.84
623885,499,33.19
623901,496,33.84
623917,504,34.16
623933,497,34.16
623949,499,33.84
623965,498,33.52
623981,498,31.26
623997,497,32.55
624013,495,32.55
624029,494,34.16
624045,493,32.87
624061,495,34.16
624077,504,33.84
624093,517,31.90
624109,527,33.84
624125,539,32.55
624141,554,34.16
624157,559,32.87
624173,566,31.90
624189,565,31.90
624204,558,33.84
624220,550,32.55
624236,538,33.52
624252,526,33.84
624268,520,33.84
624284,514,33.84
624299,503,34.16
624315,501,34.16
624331,491,33.84
624346,492,33.84
624362,491,31.90
624377,493,32.55
624393,486,34.16
624409,497,32.23
624424,496,32.23
624440,498,32.55
624456,496,34.16
624471,504,32.87
624487,508,33.52
624502,509,32.23
624518,508,34.16
624534,507,33.52
624549,500,34.16
624565,505,32.55
624580,502,33.84
624596,501,33.19
624612,499,32.55
624627,491,34.16
624642,490,33.52
624657,497,32.87
624673,500,32.55
624688,498,33.52
624704,498,34.48
624719,500,33.52
624734,506,34.16
624749,512,33.52
624765,527,32.55
624780,529,33.52
624795,548,32.23
624810,551,34.16
624825,549,33.19
624840,552,33.84
624855,556,31.90
624870,551,34.16
624885,538,33.84
624900,537,34.16
624915,529,32.55
624930,517,33.84
624946,501,33.84
624961,502,34.16
624976,490,33.84
624991,491,32.23
625006,491,32.23
625021,485,32.87
625036,493,32.87
625051,496,34.48
625066,501,33.84
625081,500,34.16
625096,506,34.16
625111,508,33.84
625126,507,33.19
625141,508,33.84
625156,503,32.87
625171,506,33.84
625186,507,32.23
625201,503,33.52
625216,505,32.87
625231,501,32.23
625246,501,34.16
625261,494,33.84
625276,493,33.52
625291,499,33.52
625306,492,33.52
625321,497,32.87
625336,499,32.55
625351,494,33.84
625366,499,34.16
625381,505,33.84
625396,516,33.52
625411,532,31.90
625426,534,33.84
625441,551,33.84
625456,554,33.19
625471,562,33.84
625486,558,33.19
625501,557,32.87
625516,548,34.16
625531,537,33.52
625546,528,33.84
625561,507,33.84
625576,503,33.84
625591,494,33.52
625606,496,32.55
625621,491,32.55
625636,490,33.19
625651,490,34.16
625666,495,31.90
625681,498,32.23
625696,498,33.84
625711,500,33.84
625726,504,34.16
625741,505,34.16
625756,502,33.52
625771,505,34.16
625786,511,32.23
625801,511,33.84
625816,512,32.87
625831,508,32.23
625846,505,33.19
625861,497,34.16
625876,492,33.52
625891,494,33.84
625906,497,33.84
625921,497,31.90
625936,496,32.55
625951,498,32.23
625966,499,34.16
625981,501,32.23
625996,496,33.84
626011,505,34.16
626026,507,33.19
626041,524,34.16
626056,540,34.16
626071,546,33.84
626086,560,32.55
626101,566,34.48
626116,569,33.19
626131,562,34.80
626146,556,33.84
626161,547,33.84
626176,539,33.52
626191,528,34.16
626206,517,33.52
626221,512,32.55
626236,507,32.23
626251,501,34.16
626266,497,34.16
626281,489,33.52
626296,496,31.58
626311,496,33.52
626326,497,32.55
626341,496,33.84
626356,502,33.52
626371,499,33.19
626386,501,33.84
626401,505,33.84
626416,506,33.52
626431,510,33.52
626446,508,33.52
626461,498,34.16
626476,504,32.87
626491,499,32.87
626506,500,32.23
626521,498,33.52
626536,500,32.55
626551,498,33.84
626566,501,33.84
626581,499,34.16
626596,500,33.84
626611,501,32.87
626626,493,33.52
626641,503,34.16
626656,495,33.84
626671,510,33.84
626686,527,33.84
626701,536,34.16
626716,549,33.84
626731,563,32.23
626746,566,33.84
626761,564,34.16
626776,563,32.23
626791,554,33.84
626806,543,33.84
626821,530,33.52
626836,530,32.23
626851,518,34.16
626866,515,34.16
626881,508,32.23
626896,504,33.84
626911,498,32.55
626926,495,33.19
626941,496,31.90
626956,496,32.23
626971,498,33.52
626986,495,33.84
627001,505,32.55
627016,503,33.52
627031,509,32.87
627046,510,33.52
627061,510,32.55
627076,506,34.16
627091,503,33.84
627106,498,33.52
627122,493,34.16
627137,494,33.52
627152,493,33.52
627167,502,32.23
627182,500,32.23
627197,494,33.52
627213,495,33.52
627228,502,32.23
627243,498,32.23
627258,497,34.16
627273,499,32.87
627288,499,31.90
627303,508,32.55
627318,511,33.84
627333,530,32.55
627348,543,34.16
627363,552,34.16
627378,559,32.23
627393,564,32.87
627408,563,33.19
627423,558,33.52
627438,551,32.55
627453,537,33.84
627468,535,33.84
627483,522,33.84
627498,513,33.52
627513,509,32.23
627528,498,34.16
627543,489,33.84
627558,493,34.48
627573,486,32.87
627588,483,34.16
627603,494,33.52
627618,492,34.16
627633,498,33.84
627648,508,32.23
627663,503,37.71
627678,511,33.84
627693,507,33.84
627708,507,33.52
627723,505,34.16
627738,507,34.16
627753,496,34.16
627768,501,33.52
627783,503,33.19
627798,503,32.87
627813,505,32.23
627828,503,32.55
627843,493,34.16
627858,494,33.84
627873,497,33.84
627888,490,34.16
627903,498,32.55
627918,498,34.16
627933,508,34.16
627948,521,32.23
627963,529,32.55
627978,537,33.84
627993,550,31.90
628008,554,33.84
628023,559,33.84
628038,558,34.16
628053,549,33.84
628068,551,32.87
628083,535,33.84
628098,533,33.52
628113,530,31.90
628128,512,33.84
628143,506,32.55
628158,495,33.84
628173,495,32.87
628188,493,31.90
628203,491,33.84
628218,496,32.87
628233,493,33.84
628248,502,33.84
628263,506,32.87
628278,500,33.84
628293,499,33.52
628308,504,33.84
628323,511,33.52
628338,509,33.84
628353,510,33.19
628368,508,34.16
628383,506,34.16
628398,507,32.23
628413,504,34.16
628428,499,34.48
628443,495,34.16
628458,493,34.16
628473,495,34.16
628488,496,33.19
628503,497,32.87
628518,498,31.90
628533,500,32.87
628548,501,33.84
628563,506,32.55
628578,522,33.19
628593,526,33.52
628608,548,32.23
628623,548,34.80
628638,561,32.87
628653,565,33.19
628668,563,33.19
628683,559,34.48
628698,553,32.87
628713,548,32.55
628728,528,34.16
628743,516,33.19
628758,513,33.84
628773,503,34.16
628788,498,34.16
628803,496,32.55
628818,496,31.90
628833,495,32.55
628848,498,32.23
628863,490,33.19
628878,500,32.23
628893,499,33.84
628908,505,32.87
628923,506,32.23
628938,501,34.16
628953,507,32.55
628968,511,32.55
628983,511,33.84
628998,506,33.84
629013,506,33.19
629028,503,33.52
629043,497,33.84
629058,499,33.84
629073,491,33.19
629088,498,32.23
629103,496,33.19
629118,487,33.84
629133,500,33.19
629148,496,33.19
629163,498,33.52
629178,500,33.84
629193,507,34.16
629209,519,33.52
629224,523,33.84
629240,540,33.84
629255,556,32.23
629270,562,32.87
629285,556,33.84
629300,562,31.90
629315,562,32.55
629330,546,33.84
629345,544,34.16
629360,528,33.52
629375,522,31.90
629391,514,32.23
629406,503,34.16
629421,497,33.84
629436,495,32.55
629451,492,33.52
629466,490,33.52
629482,496,34.16
629498,493,34.16
629513,505,32.55
629529,507,34.16
629544,508,32.23
629560,511,32.23
629576,509,33.84
629591,508,33.19
629607,509,32.23
629623,504,33.84
629638,504,32.55
629654,498,33.84
629669,497,33.84
629685,498,33.84
629701,503,34.16
629716,504,33.84
629732,505,33.52
629748,501,34.48
629764,501,32.23
629780,495,33.84
629796,503,33.84
629812,509,33.84
629828,519,34.16
629844,529,33.52
629859,538,34.16
629875,548,32.87
629891,553,34.16
629907,555,34.16
629923,552,34.16
629939,547,33.84
629955,543,32.23
629971,528,34.16
629987,517,33.84
630002,512,34.16
630018,511,32.23
630034,493,33.84
630049,499,32.87
630065,493,32.55
630080,495,33.52
630096,495,33.52
630112,488,34.16
630128,496,34.16
630144,506,32.23
630160,506,33.19
630176,502,33.84
630191,505,34.16
630207,508,32.23
630222,507,33.52
630238,505,33.52
630254,504,32.87
630269,495,32.87
630285,502,32.55
630300,500,33.84
630316,498,32.87
630332,495,33.52
630347,501,32.55
630363,500,33.84
630378,498,33.84
630394,501,33.84
630409,499,34.16
630424,507,31.90
630440,509,33.84
630455,530,32.55
630471,536,33.84
630486,547,33.52
630502,565,34.16
630518,563,33.84
630533,565,34.16
630549,555,34.16
630564,547,34.16
630579,543,33.52
630594,535,33.52
630609,516,33.52
630624,508,33.84
630640,504,34.16
630655,494,33.84
630670,492,33.84
630685,493,32.23
630700,490,33.84
630715,496,32.55
630730,499,32.55
630745,499,32.87
630760,493,34.16
630775,494,33.84
630790,501,32.87
630805,508,33.19
630820,504,33.19
630835,509,32.23
630850,501,33.84
630865,503,34.16
630880,498,33.84
630895,504,34.16
630910,503,33.19
630925,498,32.23
630940,500,33.52
630955,492,33.52
630970,499,34.16
630985,491,34.16
631000,492,33.84
631015,497,34.16
631030,502,34.80
631045,504,34.16
631060,512,33.84
631075,527,33.52
631090,539,32.55
631105,554,33.84
631120,562,32.87
631135,564,33.84
631150,569,33.84
631165,562,34.16
631180,559,31.90
631195,552,34.48
631210,538,32.23
631225,525,33.52
631240,518,32.23
631255,507,34.48
631270,506,32.55
631285,500,32.87
631300,498,33.84
631315,490,33.84
631330,490,33.52
631345,496,32.23
631360,496,32.55
631375,497,33.84
631390,491,33.84
631405,495,33.52
631420,505,33.52
631435,506,33.84
631450,505,33.84
631465,509,32.55
631480,500,33.84
631495,500,33.84
631510,495,33.84
631525,497,34.16
631541,498,33.84
631556,497,32.55
631571,491,33.84
631586,491,33.84
631601,496,32.55
631616,495,34.16
631632,496,33.84
631647,499,33.84
631662,505,32.23
631677,512,32.87
631692,517,33.84
631707,532,32.55
631722,542,33.84
631737,554,32.55
631752,554,34.16
631767,563,33.19
631782,558,33.52
631797,554,34.16
631813,544,34.16
631828,533,33.19
631844,531,34.16
631860,521,33.84
631875,511,33.84
631891,502,32.87
631906,500,33.52
631922,484,34.16
631938,485,33.84
631953,492,32.23
631968,493,32.87
631983,493,33.19
631999,501,33.84
632015,503,32.87
632030,507,32.87
632046,510,33.52
632061,512,32.87
632077,498,32.87
632093,501,33.19
632108,503,31.90
632124,503,32.23
632140,500,32.23
632155,498,33.52
632171,500,32.55
632186,499,33.84
632202,494,34.16
632218,492,34.16
632233,491,33.84
632249,501,32.87
632264,498,33.19
632280,507,32.55
632296,511,33.52
632311,526,33.19
632327,538,32.87
632343,542,33.52
632359,558,32.87
632375,551,34.16
632391,558,32.55
632406,552,32.87
632422,544,32.23
632438,532,33.84
632454,523,32.87
632470,515,34.16
632486,500,33.84
632502,491,33.84
632518,494,32.55
632534,487,33.19
632550,489,33.19
632566,491,33.52
