=~=~=~=~=~=~=~=~=~=~=~= PuTTY log 2023.05.30 18:07:00 =~=~=~=~=~=~=~=~=~=~=~=
725
734
749
761
772
778
781
780
775
769
763
757
755
748
750
748
749
748
749
754
757
768
784
816
856
906
955
993
1014
1015
997
968
937
903
869
829
795
762
738
718
704
701
698
699
710
721
736
752
765
775
788
795
803
804
802
802
796
791
781
772
762
752
745
741
747
766
801
854
906
950
962
961
944
910
872
839
808
780
761
739
725
704
692
687
687
699
703
720
733
744
746
748
743
739
735
729
726
723
720
724
723
721
718
719
714
717
723
740
771
813
863
900
920
919
905
872
839
801
770
745
723
710
698
681
676
676
682
689
703
717
727
733
733
729
722
714
704
702
697
693
691
689
687
686
684
685
689
698
718
754
798
844
877
899
902
886
862
831
800
773
758
734
716
705
696
691
687
692
699
711
733
733
738
738
738
733
727
721
715
714
705
706
709
714
711
710
714
714
720
731
755
792
839
881
911
922
917
894
864
833
803
782
756
735
721
707
692
691
690
693
706
725
728
740
746
748
746
744
735
728
725
719
722
717
714
712
714
719
717
717
721
720
728
752
784
827
868
895
908
904
886
858
827
798
776
764
746
731
718
710
703
699
700
708
719
726
739
746
749
748
745
740
730
723
717
716
715
717
714
716
717
716
718
715
715
718
720
729
755
788
829
863
884
893
881
861
835
808
785
766
752
737
724
712
704
696
698
705
711
720
731
739
734
737
732
728
722
715
709
706
699
697
697
701
697
702
701
703
703
702
707
717
739
771
809
845
869
876
870
853
829
800
776
755
737
723
713
702
694
690
693
701
706
718
726
734
738
737
734
729
721
716
710
708
710
711
709
708
719
716
717
717
716
716
717
718
729
745
775
814
851
878
889
887
868
845
821
792
774
757
740
729
718
710
702
697
700
708
713
725
729
737
737
739
739
736
733
728
724
720
717
713
712
713
714
712
719
718
718
719
717
715
720
726
744
776
817
846
868
875
867
849
823
800
779
765
750
737
726
717
707
702
697
701
705
715
722
728
732
735
735
729
726
719
716
714
711
709
708
706
709
710
713
711
708
712
711
709
710
712
716
725
753
786
821
847
861
859
845
822
799
776
754
741
727
717
706
699
692
688
688
694
705
712
720
722
723
722
721
713
709
702
700
691
690
691
689
697
698
704
700
699
701
703
701
704
705
715
732
758
790
825
845
855
851
839
817
793
773
755
745
730
720
707
702
694
694
701
707
715
724
729
729
727
728
721
721
718
710
707
704
704
702
703
706
710
715
715
719
718
719
718
715
717
716
717
730
756
786
825
858
879
885
877
864
837
819
801
790
771
757
744
730
722
714
712
717
729
732
738
745
748
746
746
743
738
733
732
723
720
722
720
719
720
721
727
728
731
729
730
726
725
723
724
724
732
755
788
824
858
885
894
889
872
850
831
811
795
779
767
754
741
733
722
720
722
725
736
746
749
751
752
745
739
736
731
723
720
714
716
713
712
716
720
722
723
721
721
717
719
719
720
725
742
772
812
851
880
897
894
881
861
831
808
787
771
755
743
729
722
713
712
715
727
731
744
752
757
754
752
748
734
729
725
724
719
722
719
720
721
720
726
724
728
729
730
727
727
727
733
747
781
818
860
898
924
931
922
904
879
853
830
809
794
780
766
751
740
731
725
725
729
738
749
755
764
766
764
759
754
748
742
737
734
734
736
738
740
740
741
742
744
747
743
745
743
744
748
751
772
804
851
915
946
974
981
977
958
935
909
887
872
855
841
828
805
799
788
781
781
787
794
805
813
818
820
816
809
802
795
784
780
775
775
776
776
780
779
779
778
782
775
774
773
771
779
793
823
869
916
960
991
1002
991
974
945
913
887
861
843
819
798
777
767
753
752
755
765
777
786
795
793
791
786
778
769
761
753
748
746
743
746
745
746
748
749
751
752
751
750
747
747
763
794
841
890
932
963
975
968
949
925
891
864
845
825
806
787
766
751
737
731
729
738
751
758
769
769
770
768
764
759
749
742
740
739
737
733
735
736
736
741
738
742
740
742
741
741
738
744
762
794
836
880
911
932
930
917
898
866
843
822
803
792
775
762
745
732
723
717
718
724
737
744
751
754
755
751
747
739
732
730
726
720
720
724
723
726
725
725
728
731
728
725
726
722
721
723
734
751
783
820
853
876
885
884
865
844
824
798
782
766
754
741
725
716
706
699
703
707
714
720
726
734
733
729
729
717
711
706
699
699
696
696
698
699
703
703
705
707
712
713
710
712
715
728
748
777
806
834
853
858
856
843
820
803
785
769
759
744
731
717
709
702
701
702
709
718
725
732
739
738
735
730
729
725
722
722
717
714
713
713
714
718
721
727
720
724
723
722
717
717
715
716
720
732
754
781
811
833
846
847
839
826
810
793
782
768
756
745
737
725
714
709
702
706
712
715
723
728
725
732
730
731
728
725
722
719
717
715
716
715
715
715
719
724
727
726
723
723
722
720
719
714
714
716
726
742
764
786
807
819
825
820
810
798
780
768
759
750
741
733
722
713
707
706
706
708
713
721
723
726
730
729
726
721
718
714
707
704
704
704
704
707
712
714
717
717
710
712
710
707
709
708
709
714
731
749
770
792
810
816
815
809
791
775
758
746
737
732
720
709
702
700
701
699
703
709
713
718
722
726
728
722
722
717
717
714
713
708
709
709
710
713
717
718
723
722
721
721
720
720
718
718
719
718
723
740
761
783
806
831
844
848
842
829
814
799
787
778
770
765
756
745
734
730
725
723
725
729
736
738
743
734
743
736
737
729
724
720
719
717
718
716
720
721
726
725
725
728
725
723
722
720
718
716
715
714
719
732
756
786
815
836
850
846
836
822
809
789
775
768
758
753
740
728
718
709
704
706
712
718
725
733
739
740
735
731
725
720
714
711
706
702
702
704
706
708
710
711
714
712
713
714
709
711
710
717
727
749
775
806
833
851
853
855
834
820
800
786
774
763
752
741
734
721
718
712
715
719
727
737
743
743
747
745
738
732
725
721
715
716
715
718
721
724
724
728
729
730
732
731
731
729
729
729
725
732
742
760
785
823
855
874
883
882
873
855
842
819
807
795
786
773
763
751
739
734
727
725
733
741
748
757
758
758
753
747
744
740
734
732
731
731
733
734
736
735
739
742
740
741
740
741
740
739
732
734
734
740
755
784
818
858
880
900
900
885
867
847
837
819
806
800
789
778
763
751
741
739
742
747
757
761
766
771
770
766
763
749
744
737
733
729
723
724
725
728
729
732
732
734
737
736
734
733
731
735
741
757
786
824
859
885
901
897
884
863
837
815
799
785
772
760
747
736
734
727
731
733
739
750
756
758
761
757
747
744
742
730
726
727
728
727
730
731
733
735
736
735
736
734
734
733
733
736
747
769
800
840
879
904
918
914
900
879
860
840
822
810
795
785
773
758
747
741
736
739
741
750
760
766
767
763
762
757
751
744
737
732
730
732
731
731
732
735
738
736
731
736
737
735
737
740
752
771
798
833
869
897
914
915
908
887
866
848
835
816
802
789
776
762
749
739
732
736
744
751
758
762
764
766
761
755
749
745
738
732
728
725
720
727
733
734
738
735
737
733
732
730
733
740
755
789
828
866
895
909
906
891
870
849
830
809
799
776
762
745
723
720
717
724
725
734
744
755
757
759
756
752
743
734
730
730
727
727
727
729
729
731
735
733
735
736
735
735
737
739
755
778
816
859
896
919
925
919
902
875
851
826
813
802
788
776
761
746
733
732
728
733
740
750
758
765
768
765
762
754
747
742
738
744
733
732
733
731
732
731
729
733
725
731
734
735
739
756
778
815
852
886
914
919
913
899
871
848
826
804
792
777
768
752
742
729
723
723
727
733
746
752
760
764
758
753
747
741
734
728
726
721
721
721
720
722
723
726
726
719
722
719
723
737
757
794
831
865
889
899
895
882
859
836
817
802
792
780
776
760
757
753
759
768
775
786
794
799
802
795
793
787
786
780
783
779
774
773
763
760
748
737
729
718
715
706
705
706
707
715
729
763
798
840
876
894
893
884
863
842
814
798
782
778
769
759
749
737
736
734
740
745
756
768
773
773
777
771
767
755
755
744
739
734
731
734
731
732
737
733
730
730
729
730
728
732
736
745
773
803
845
878
892
902
895
877
858
837
815
799
786
774
755
741
725
712
704
707
706
707
713
723
728
728
730
726
721
718
715
713
713
713
714
717
719
719
717
718
719
718
719
724
740
759
789
822
855
876
882
875
864
846
825
810
792
775
761
748
734
719
709
709
710
720
728
737
746
750
753
746
739
739
732
730
725
724
720
720
719
728
736
742
740
742
741
738
740
740
745
764
788
819
854
882
894
897
884
865
841
821
801
788
776
759
743
730
720
713
720
720
730
736
747
754
758
755
755
755
742
731
723
721
721
721
723
726
726
727
727
728
729
729
733
727
734
738
748
771
795
824
849
868
871
862
845
822
800
782
762
749
741
726
719
710
707
708
716
724
728
733
735
738
739
733
731
723
720
713
710
704
700
701
699
702
702
705
706
703
701
701
705
713
733
756
788
815
837
842
837
822
808
785
765
756
736
726
713
703
698
692
694
701
708
721
725
728
728
726
722
719
720
712
706
706
703
701
705
704
707
710
712
716
715
715
715
719
718
720
731
749
782
815
839
858
860
853
840
817
797
777
763
750
742
733
727
719
713
717
716
720
730
735
742
744
745
739
731
729
720
717
713
712
713
712
717
718
721
720
721
721
723
724
724
724
724
731
746
768
795
821
836
845
842
831
811
788
772
755
746
735
723
715
709
703
702
702
708
715
723
727
727
728
728
728
724
723
713
708
703
703
700
702
703
705
704
704
704
705
706
706
707
716
726
749
773
793
809
815
807
798
781
760
748
734
721
707
706
694
690
687
689
696
704
709
717
719
720
717
710
704
703
697
693
695
692
695
696
697
697
700
701
705
707
706
706
709
713
719
737
766
789
819
830
837
833
820
814
791
774
762
749
740
734
723
714
710
711
712
718
724
737
738
740
742
739
733
734
726
722
721
716
720
721
721
723
726
725
725
726
723
723
724
726
729
742
761
790
820
848
868
872
867
859
842
822
808
791
778
766
753
741
734
729
731
732
737
741
746
745
751
747
745
744
741
738
733
725
725
723
722
723
725
727
730
733
733
728
733
727
728
730
746
770
801
834
866
885
895
882
871
852
829
807
788
772
756
743
736
728
729
727
734
743
752
760
763
764
759
755
751
750
741
740
739
734
734
735
741
734
734
730
725
722
722
720
726
741
768
799
834
869
894
900
893
876
857
839
815
799
783
770
755
746
739
736
741
746
752
759
765
768
769
765
760
752
748
739
734
730
728
727
732
731
734
738
735
734
737
737
735
735
744
759
785
822
864
892
911
913
905
885
865
842
824
801
792
777
764
754
746
739
739
746
749
756
763
770
770
770
768
765
759
750
745
739
733
729
731
720
724
724
726
727
729
731
728
728
731
744
764
796
834
867
886
895
887
868
847
821
800
781
766
757
744
735
723
717
716
717
724
733
744
746
749
745
741
735
727
718
715
710
705
707
701
705
710
705
706
707
704
708
709
722
740
768
805
844
872
887
888
880
864
841
818
799
784
767
749
736
728
718
717
723
734
741
750
762
759
760
760
751
746
740
731
728
724
723
722
723
724
726
726
731
729
730
732
731
737
757
785
828
877
920
947
954
946
928
900
873
850
829
814
803
786
775
762
752
744
748
755
767
775
784
785
788
781
780
767
755
751
746
741
741
740
739
741
741
738
738
734
735
735
738
742
762
792
833
877
918
937
942
932
911
884
853
831
811
796
782
765
748
736
732
730
731
738
745
750
768
764
761
758
752
740
736
728
723
714
713
715
718
718
722
721
725
719
717
715
730
753
789
842
885
913
925
923
903
877
853
826
803
784
767
749
733
721
713
715
722
734
747
758
765
768
764
757
751
739
728
723
723
718
717
713
714
714
714
715
715
714
714
723
729
754
789
845
894
942
965
971
961
935
908
876
849
825
807
788
770
755
742
736
735
743
753
763
776
780
783
780
779
766
758
746
741
735
730
731
733
730
735
734
735
737
735
734
735
741
761
797
847
907
958
989
997
991
964
932
897
869
845
827
808
796
769
751
740
738
738
751
761
772
780
782
779
775
765
760
750
743
737
732
729
731
735
734
733
733
735
733
730
731
735
751
783
831
881
934
963
971
960
935
901
865
836
810
787
771
752
733
720
717
715
721
732
746
751
763
765
761
751
743
730
715
706
700
697
698
694
691
696
694
696
699
699
698
709
729
770
816
867
907
928
929
912
883
849
817
788
764
742
724
706
691
677
678
682
694
713
725
738
743
746
739
726
716
703
697
691
689
689
689
691
690
692
692
693
695
693
695
702
716
747
788
840
888
921
931
924
906
875
844
814
790
767
750
733
720
707
696
694
697
703
714
723
731
738
741
740
732
726
717
710
700
698
693
693
693
694
696
701
703
705
706
709
709
714
730
756
799
843
883
907
913
900
878
845
820
798
772
758
743
728
715
700
689
689
693
703
712
724
732
735
734
730
725
721
713
706
702
701
697
699
695
696
697
696
701
700
702
702
703
703
715
733
770
809
847
874
887
881
859
831
803
774
753
736
721
709
693
685
676
675
679
686
693
701
709
716
718
716
708
702
694
689
686
685
681
681
682
683
685
684
682
680
682
681
681
692
714
746
783
816
836
845
842
823
802
774
758
735
721
704
693
681
673
668
672
679
687
699
709
715
716
717
714
708
703
696
688
687
684
684
685
687
688
691
693
694
698
698
703
703
709
725
746
782
818
851
868
867
856
834
813
793
768
751
740
731
720
706
695
691
690
694
700
708
717
720
725
724
722
721
712
706
704
701
702
699
704
706
703
705
704
708
707
704
704
707
712
729
756
788
823
852
865
866
858
834
819
795
778
758
746
732
719
712
706
699
699
706
711
718
726
734
735
734
735
727
725
718
713
711
707
702
702
699
701
709
708
707
708
707
708
713
729
753
789
824
850
867
870
863
843
815
792
775
754
738
722
710
700
690
686
692
697
710
717
724
728
728
724
718
712
704
695
692
690
692
692
689
693
694
694
697
699
703
706
716
725
749
781
819
855
879
887
884
870
844
822
797
775
759
745
731
717
711
703
705
706
717
726
737
745
747
751
751
746
740
734
727
727
721
720
714
715
718
714
718
721
722
725
725
727
734
749
781
818
858
889
908
908
899
881
856
834
813
795
784
766
752
734
729
720
721
724
736
748
757
762
765
761
761
752
745
740
734
732
731
729
729
728
730
732
730
730
731
728
733
734
744
763
801
834
870
896
910
907
897
876
857
831
812
797
782
768
754
745
737
732
734
738
746
754
760
767
763
764
757
754
746
740
735
727
726
725
724
721
724
724
727
741
724
723
727
738
759
795
832
868
896
906
900
883
858
830
809
787
768
753
735
722
713
710
711
717
726
740
747
754
756
753
748
740
732
730
724
718
717
717
713
714
715
714
716
716
716
722
727
736
755
784
824
863
899
916
920
910
892
865
841
819
800
782
771
753
740
732
726
731
736
741
754
761
765
771
771
762
758
753
747
738
732
728
725
725
726
730
734
733
731
730
727
726
735
751
780
820
866
898
915
919
911
891
868
846
825
811
793
776
761
745
733
723
728
733
740
749
758
762
767
765
761
754
749
739
734
730
726
725
725
722
721
720
718
718
719
721
724
730
741
766
804
840
875
897
908
903
881
858
832
806
787
767
750
734
720
710
706
709
714
724
734
742
753
751
748
742
735
726
717
711
708
704
701
697
700
705
704
707
706
705
705
710
725
748
784
826
867
898
911
908
893
871
848
823
803
788
771
756
739
727
715
712
710
722
732
743
752
759
760
758
752
743
737
730
726
725
730
720
719
720
719
716
722
723
721
722
724
724
737
760
800
842
881
909
925
920
904
878
854
828
807
790
774
761
746
736
723
713
716
719
729
738
749
750
749
746
740
732
722
719
712
709
712
709
707
710
713
711
715
708
709
707
710
724
745
779
824
860
889
900
899
883
856
829
806
782
764
750
730
715
699
692
691
699
711
724
735
744
749
745
739
732
724
719
715
709
716
711
711
713
713
714
715
716
717
722
719
721
729
747
781
828
873
910
936
938
925
903
875
849
826
804
788
770
756
741
729
720
721
722
732
742
751
760
763
760
762
748
744
736
729
724
720
720
719
718
719
722
723
719
717
715
717
719
722
742
772
816
863
897
925
929
924
903
881
847
819
795
774
754
738
721
706
701
699
702
712
721
736
738
742
741
738
734
726
717
707
705
699
693
694
693
698
702
704
704
703
704
704
710
728
760
803
849
887
906
911
897
871
845
813
788
763
742
723
710
695
686
684
688
696
709
721
732
739
740
739
734
726
715
706
701
696
699
702
704
705
709
710
710
713
709
711
712
718
734
762
803
853
897
923
937
928
907
880
851
821
800
781
766
749
734
724
716
715
717
726
731
741
749
754
752
753
743
736
728
722
714
713
709
705
705
708
713
714
722
722
718
717
719
720
735
756
796
845
888
920
935
929
911
884
858
830
803
784
765
746
730
711
700
694
700
703
719
730
737
742
743
740
731
726
716
712
708
703
705
702
702
700
701
700
697
700
702
703
708
726
755
800
846
889
914
922
911
892
859
827
797
774
751
734
718
701
691
693
694
705
714
733
741
747
751
746
744
738
727
715
711
704
702
701
704
705
711
713
711
713
711
716
716
724
747
786
832
886
930
949
954
941
919
890
860
834
813
790
775
751
734
719
708
708
715
727
738
754
759
765
761
758
751
745
731
725
721
718
716
714
720
718
718
719
718
718
718
718
724
732
761
794
845
891
928
945
945
928
897
866
836
806
786
763
746
726
712
703
697
696
706
716
725
738
741
742
741
735
725
714
708
698
692
689
686
694
691
693
691
693
689
688
691
693
717
749
795
844
887
911
921
914
888
860
823
798
773
754
733
714
698
688
689
685
694
708
722
732
740
743
741
736
727
719
711
701
699
699
697
697
701
700
701
702
707
705
708
711
725
743
791
839
890
934
959
961
946
919
889
854
822
797
779
761
744
727
713
701
705
712
723
734
747
756
763
762
754
748
738
731
724
718
713
714
711
710
711
713
712
711
711
711
714
715
727
755
797
851
902
938
952
949
932
906
873
844
818
794
777
756
738
723
710
709
710
718
726
742
753
758
754
746
737
730
717
712
704
700
698
695
698
698
696
698
700
702
707
702
713
730
759
802
850
893
928
939
927
906
874
839
806
780
759
734
719
697
685
681
681
691
704
722
732
741
744
744
742
731
723
713
705
698
693
691
692
695
699
700
698
700
700
701
706
727
755
802
856
910
943
962
959
940
908
874
841
813
787
767
745
727
707
699
693
697
712
730
741
756
762
766
756
749
741
730
724
718
712
713
714
710
708
711
710
710
713
712
713
720
734
763
804
860
912
950
965
963
944
915
877
843
815
790
771
752
728
716
703
699
699
706
719
732
742
748
748
747
743
731
723
717
705
698
698
695
697
700
702
700
702
701
702
708
709
728
767
817
872
917
947
956
941
911
873
838
803
773
755
728
709
692
681
673
679
690
703
718
732
736
744
738
731
723
713
705
698
695
696
697
699
700
701
698
701
700
703
702
711
733
774
826
881
932
964
970
961
937
907
870
833
805
777
755
735
716
703
696
699
708
720
737
749
756
761
760
756
750
737
727
719
712
708
705
705
706
713
711
712
713
713
713
715
726
742
784
835
892
945
978
986
975
952
917
880
845
819
798
777
756
735
715
702
699
705
717
734
745
759
763
763
757
747
741
730
720
712
712
707
706
705
704
707
705
704
705
706
710
731
763
813
873
923
962
971
963
942
907
870
831
798
773
750
728
705
691
688
688
699
715
730
744
747
752
750
741
731
718
709
700
700
694
694
694
697
700
705
708
710
712
713
719
739
772
827
891
947
991
1013
1004
981
946
907
868
837
811
786
764
744
724
711
707
708
720
737
751
764
772
774
770
762
754
742
736
725
720
716
717
715
714
715
716
715
713
713
715
725
739
778
830
892
948
988
1006
1002
982
945
908
869
834
808
783
762
738
721
710
703
704
716
727
744
756
763
766
765
749
746
736
724
718
711
708
705
708
708
708
707
705
705
705
702
709
720
756
813
874
932
980
994
988
963
931
883
847
806
779
751
729
703
685
676
675
684
695
711
726
743
749
744
740
734
720
712
702
696
693
692
689
689
693
692
692
693
692
695
705
731
771
831
895
955
986
997
986
944
914
871
833
800
772
742
719
695
675
671
675
690
710
731
748
764
762
758
750
743
732
717
709
703
700
694
694
697
703
701
706
708
705
708
711
723
755
807
871
937
989
1018
1021
1006
973
933
888
851
817
786
763
734
714
696
684
684
692
705
720
735
746
753
755
750
743
731
721
714
707
706
704
704
707
703
706
701
700
698
695
695
702
722
764
819
889
946
985
1001
991
963
925
884
843
807
778
746
721
696
676
665
662
673
688
706
718
729
733
736
733
720
712
705
695
689
683
682
680
678
685
677
679
680
681
685
697
720
770
824
888
941
976
979
967
935
891
845
806
770
738
712
688
673
661
660
669
682
698
717
735
742
746
745
737
724
716
707
700
692
688
689
690
694
699
700
702
699
698
696
703
721
757
817
887
950
999
1016
1016
988
953
909
867
827
799
772
745
722
698
681
673
678
690
706
722
740
749
754
750
742
731
725
714
707
701
694
695
691
694
689
693
691
692
693
696
702
722
760
816
882
946
984
1000
991
968
927
885
851
813
780
754
730
703
687
676
672
680
691
708
725
742
750
751
747
739
728
715
704
693
691
685
682
684
685
684
688
686
686
685
694
707
742
798
857
916
957
976
969
943
903
862
821
784
746
721
689
664
649
642
648
657
679
699
720
734
738
738
726
716
702
694
684
677
675
673
672
671
676
674
680
678
687
682
684
697
729
778
837
903
953
981
980
958
918
878
836
798
764
738
711
688
670
654
651
655
669
686
707
724
735
742
746
740
729
715
706
697
690
683
680
682
683
679
684
687
688
686
685
687
692
707
745
797
861
921
961
976
967
946
905
866
828
796
768
750
727
705
683
673
670
675
685
702
718
732
741
740
741
734
728
722
708
705
694
689
687
684
684
686
688
692
692
692
694
695
697
708
731
774
830
892
941
968
968
951
917
877
833
799
770
748
724
706
689
673
668
671
680
693
709
723
737
740
743
735
727
715
709
697
690
684
679
682
678
682
681
682
686
688
687
694
708
739
784
846
908
953
976
973
954
923
884
845
808
779
752
725
703
683
672
672
680
695
715
734
752
763
767
761
756
744
734
721
716
704
707
702
703
703
701
704
710
712
727
708
712
717
733
768
824
888
951
998
1019
1016
995
962
918
880
849
816
794
773
749
731
718
711
711
718
736
752
769
778
778
777
768
759
747
735
729
721
724
716
714
716
718
719
721
719
717
716
720
725
738
769
818
884
948
995
1017
1020
1004
969
931
890
852
822
796
768
748
730
716
707
711
717
734
748
759
773
773
770
764
752
743
729
722
716
711
713
713
719
720
717
718
715
711
709
714
731
769
824
890
952
989
1010
1001
973
932
895
844
808
776
746
724
701
683
677
684
694
712
732
746
763
767
764
751
738
727
715
707
700
698
695
697
699
703
703
705
709
706
707
712
725
750
794
853
922
977
1009
1019
1006
978
937
893
852
817
786
767
736
713
696
690
686
695
708
728
745
760
769
767
762
755
744
733
721
713
707
701
704
699
699
707
703
711
707
705
709
710
717
746
790
850
921
969
998
1000
986
954
915
869
833
801
776
752
730
708
694
683
684
687
698
716
734
745
757
758
753
746
734
721
709
704
693
693
688
691
692
694
696
697
695
694
693
701
711
738
785
845
903
949
973
969
943
904
861
821
783
751
727
705
683
668
655
653
661
671
685
704
719
728
730
725
716
706
694
683
676
673
669
670
673
673
676
678
679
678
682
682
693
717
764
817
881
931
962
971
953
920
880
845
802
772
745
721
698
681
663
657
665
681
702
719
731
744
748
743
738
729
719
710
703
695
692
688
688
693
693
695
701
701
706
703
707
709
722
751
801
863
924
971
995
996
977
939
896
851
814
784
761
741
722
704
691
682
683
696
705
723
737
751
755
752
748
743
730
720
706
701
698
694
698
699
704
701
706
702
701
699
704
711
726
753
801
859
914
963
976
974
953
919
881
842
810
784
767
738
717
702
689
686
689
701
716
733
747
756
755
756
746
740
733
721
713
705
701
696
693
696
698
697
697
699
699
699
707
730
762
819
878
930
969
983
975
945
903
864
820
787
763
733
709
683
673
668
676
688
705
725
743
756
760
756
749
738
727
713
701
693
689
690
692
701
698
698
701
702
698
698
703
711
730
770
828
895
952
991
1005
992
965
925
880
839
809
780
752
731
711
699
688
688
696
710
725
745
757
761
759
758
749
741
728
720
714
708
703
701
699
700
701
704
703
704
706
703
707
718
742
784
844
907
960
990
994
982
946
903
859
821
788
761
738
716
695
680
672
676
682
698
714
734
744
748
749
742
733
722
712
704
698
691
690
687
686
687
689
688
691
694
692
696
709
737
781
833
893
939
964
965
946
912
868
828
791
752
724
692
675
658
652
658
668
686
704
722
736
742
739
735
725
715
708
700
690
684
686
683
683
687
689
690
691
694
698
703
714
748
787
850
914
969
999
1004
983
954
910
870
829
795
769
743
717
695
681
670
675
687
705
729
740
756
760
762
753
746
736
725
718
713
712
711
710
708
711
709
710
709
708
712
713
724
746
791
854
911
971
1001
1006
993
960
922
883
845
812
785
763
736
715
697
692
689
698
714
731
743
755
760
758
754
751
737
723
709
705
696
692
691
689
692
692
694
693
695
692
695
700
723
759
816
876
930
966
974
959
926
884
837
802
770
742
716
693
674
657
648
653
663
681
701
717
727
734
728
722
713
698
691
681
677
677
674
675
675
674
674
674
673
678
684
698
730
779
843
907
949
968
963
941
904
856
815
776
746
717
691
666
647
640
640
656
675
691
712
726
730
733
728
723
711
702
695
688
681
679
677
678
682
685
686
687
690
694
700
710
740
785
853
918
975
1007
1009
990
953
907
860
819
784
759
729
709
686
669
658
661
667
682
701
720
735
743
750
742
734
727
717
706
699
696
697
694
699
692
698
698
697
698
698
704
711
725
759
813
874
934
974
990
984
954
919
877
838
807
779
757
733
710
710
679
675
679
692
709
726
743
754
756
750
746
735
725
715
707
697
691
689
688
686
689
690
693
695
697
700
702
711
737
783
843
907
958
990
990
969
934
888
846
809
778
750
724
706
688
673
669
670
684
697
720
731
739
743
739
730
721
707
692
681
677
675
676
678
681
683
689
686
690
690
697
709
734
776
838
903
952
982
983
969
936
891
848
808
776
748
721
698
679
666
663
669
680
699
716
734
746
750
749
740
728
721
712
704
695
690
687
685
687
692
695
697
703
699
700
700
709
731
770
832
897
953
981
990
975
942
897
854
815
784
761
739
716
697
680
668
667
677
688
703
722
731
742
742
745
732
718
708
696
693
683
681
683
681
685
684
688
688
686
691
696
712
746
797
858
919
961
979
968
940
899
856
814
775
745
720
697
672
657
647
652
664
684
704
722
733
739
739
730
719
708
701
691
685
679
676
678
682
681
685
692
694
699
705
719
750
804
869
931
982
1004
1005
985
950
906
861
819
792
763
741
718
703
690
690
693
704
724
740
757
766
770
767
759
746
733
727
716
707
704
702
704
705
707
712
715
712
714
716
731
759
810
875
942
987
1013
1009
989
955
913
868
833
805
782
760
742
726
708
704
701
716
730
747
761
769
769
768
760
747
736
728
717
711
705
705
701
704
698
701
699
699
703
704
719
757
809
880
936
978
997
990
964
927
885
842
805
774
748
719
694
676
667
667
675
690
710
727
741
746
745
739
723
715
705
701
686
679
675
676
676
674
678
687
689
694
712
743
801
865
934
981
1005
1004
982
941
899
856
815
786
751
730
706
686
676
676
683
694
716
735
750
761
759
756
746
735
731
714
707
701
697
695
698
697
699
703
700
703
712
733
783
842
906
968
1002
1012
995
958
906
866
824
788
764
736
715
694
678
673
674
685
701
722
740
755
759
760
751
742
729
722
711
704
698
695
693
692
689
687
691
688
688
694
724
763
821
888
951
977
984
969
931
889
849
805
771
740
713
687
665
651
648
658
672
689
708
725
736
739
731
729
717
704
694
688
680
678
676
672
672
673
675
678
682
693
724
768
832
899
950
982
990
977
948
907
867
830
789
761
732
711
688
670
665
666
677
696
712
730
737
740
732
728
716
702
692
685
678
680
675
677
681
686
691
696
705
714
737
768
827
887
949
981
1000
992
968
926
885
846
815
784
757
735
711
695
687
685
691
701
718
729
740
747
750
744
739
732
721
715
710
704
705
701
704
700
696
695
692
698
704
715
749
801
862
921
964
982
975
949
910
872
831
796
765
737
712
687
666
657
660
668
684
707
726
739
746
744
740
728
714
704
693
686
681
680
678
680
677
681
683
686
689
705
730
774
831
896
946
971
977
959
931
890
852
817
786
760
732
710
693
676
678
685
696
714
733
749
757
758
754
750
739
732
721
715
712
708
708
708
704
708
703
707
707
707
717
743
781
839
900
949
981
987
969
938
901
862
827
796
765
745
722
701
693
693
695
706
723
742
750
757
760
757
751
743
730
721
712
706
703
704
704
708
712
716
716
714
713
712
716
733
766
823
870
921
951
963
954
930
890
848
809
778
748
727
707
688
676
668
676
687
708
721
736
749
752
748
743
732
720
708
699
694
690
687
686
688
686
685
689
691
696
704
726
759
812
868
921
946
954
939
910
871
831
792
763
731
703
681
663
659
664
678
698
723
743
759
767
769
763
753
740
729
720
709
703
701
697
697
697
699
702
702
705
709
725
750
803
857
911
953
978
981
957
925
887
849
819
786
754
732
706
689
680
680
