=~=~=~=~=~=~=~=~=~=~=~= PuTTY log 2023.05.30 19:20:02 =~=~=~=~=~=~=~=~=~=~=~=
780
784
789
781
780
777
776
769
760
754
745
741
730
727
726
727
728
733
737
742
741
746
746
744
746
741
741
740
741
748
753
758
770
783
792
805
810
812
808
804
795
784
774
766
754
750
745
743
741
739
740
739
742
746
751
756
759
753
753
749
748
747
746
742
745
750
759
771
786
800
811
818
816
814
809
804
796
783
777
768
759
751
748
743
745
744
747
748
750
749
749
747
744
744
743
745
745
741
740
739
741
748
759
775
788
801
812
819
817
813
805
795
787
776
766
760
753
748
747
742
742
742
743
745
748
753
760
754
755
752
752
745
741
744
741
744
744
754
760
772
785
794
802
808
812
810
808
798
790
783
768
760
751
755
749
748
746
745
744
746
752
745
747
745
748
747
744
746
745
740
735
730
734
741
750
769
776
787
793
797
799
793
785
780
778
770
761
758
750
748
743
739
737
744
745
750
747
749
738
745
745
742
739
740
740
739
736
738
740
748
755
768
778
788
801
802
800
800
793
787
776
765
757
750
750
745
739
741
738
733
742
742
744
747
753
751
752
749
752
746
745
746
736
742
752
764
779
787
797
803
808
803
797
793
794
781
771
766
757
744
742
733
736
739
741
746
745
749
750
746
744
742
741
744
743
739
738
738
740
745
755
764
776
791
806
807
812
809
802
796
787
777
766
757
752
749
745
740
743
741
742
741
744
746
749
747
748
752
748
745
742
734
738
741
739
746
751
761
777
784
793
791
796
800
796
790
780
771
763
756
749
741
733
736
737
743
741
743
744
747
747
746
746
741
743
744
742
741
742
734
738
744
755
770
782
796
802
803
803
793
790
782
771
765
757
755
744
741
737
738
737
738
738
745
742
744
743
745
744
742
746
739
740
738
740
744
751
757
772
782
794
795
803
806
805
802
797
789
783
772
765
756
751
750
745
745
745
742
746
748
747
746
746
748
752
749
752
745
744
744
741
748
753
765
776
790
797
804
807
806
800
795
787
780
774
766
764
754
746
748
743
743
744
746
748
747
747
753
751
749
744
747
751
749
756
757
754
757
763
773
780
784
793
798
799
800
800
791
784
773
764
755
751
746
745
747
741
742
747
742
743
745
745
746
745
748
743
742
740
735
732
734
736
744
751
763
772
784
790
797
793
789
783
776
772
761
759
750
743
740
739
736
736
739
742
742
741
737
737
738
734
734
730
730
731
733
736
738
743
756
766
775
785
790
795
794
792
783
778
771
760
753
748
743
741
741
735
734
736
734
736
738
741
739
741
744
743
740
740
735
729
734
739
742
749
762
775
787
791
797
793
795
792
786
783
785
771
759
754
752
747
741
741
741
745
745
746
747
746
746
745
740
736
736
739
736
736
737
737
740
754
758
770
778
786
793
796
792
791
780
780
768
762
757
754
749
745
744
741
740
740
741
745
742
743
745
745
745
745
741
741
739
740
739
742
745
754
756
767
776
785
791
794
796
793
782
785
777
767
757
750
748
743
740
737
736
738
740
736
737
735
733
736
740
737
737
733
731
726
732
732
734
740
755
765
775
788
792
799
796
789
782
777
770
765
758
753
748
744
741
739
737
737
744
744
742
745
740
737
737
740
735
734
733
732
739
736
742
748
760
769
776
783
787
793
790
789
784
775
775
760
754
749
744
745
745
746
744
743
742
742
742
742
748
745
743
746
747
740
739
742
735
737
739
746
755
766
777
783
790
793
798
799
795
789
784
778
767
759
759
747
746
746
747
749
748
752
748
745
747
742
741
746
742
742
740
741
740
739
735
735
740
749
758
767
777
786
788
788
786
782
775
776
773
765
762
758
751
749
742
739
739
740
741
744
746
748
743
743
741
741
739
742
742
747
741
740
739
738
742
749
762
771
779
788
790
792
789
787
781
771
765
756
751
753
744
744
744
738
740
737
737
735
741
740
749
742
738
738
735
733
733
734
738
738
741
748
759
763
772
776
783
787
787
794
783
780
771
765
756
749
748
744
745
748
747
744
745
745
747
743
746
745
741
746
745
745
745
744
738
736
739
745
754
764
774
782
788
792
792
788
789
783
780
776
768
765
758
751
750
744
743
743
746
750
749
753
749
750
747
747
744
744
744
743
745
742
743
745
751
756
766
775
790
793
794
797
796
793
783
778
773
767
762
757
752
750
755
750
752
747
749
752
752
751
751
754
751
748
747
742
738
739
742
744
747
752
763
768
778
785
791
794
793
790
785
779
768
763
757
751
745
743
743
747
746
751
745
747
753
750
753
748
750
750
747
747
745
748
742
742
746
750
765
772
781
787
791
791
790
788
781
778
776
769
766
759
751
748
751
744
743
746
749
752
750
754
750
750
749
745
743
742
745
746
747
746
749
757
762
773
780
792
795
800
802
798
795
788
781
776
767
761
757
754
753
752
750
749
749
749
747
747
749
750
752
752
747
748
744
743
740
745
742
746
754
762
771
779
783
788
789
790
789
783
781
773
768
761
754
750
749
747
749
749
751
751
751
751
748
746
746
746
747
746
744
740
740
737
728
740
744
754
765
767
779
786
787
788
789
780
774
768
764
762
758
762
752
746
741
749
736
736
742
743
744
746
747
748
746
746
742
746
744
743
748
751
755
758
768
770
775
777
781
782
784
782
782
779
770
769
771
762
758
757
755
756
749
751
747
743
751
747
750
748
749
749
742
745
743
740
741
742
745
747
757
766
776
783
792
796
794
793
791
790
785
782
766
768
763
756
749
747
747
749
753
751
750
750
751
746
746
747
748
748
748
746
742
742
741
740
737
739
746
756
767
774
779
787
789
790
788
786
781
779
779
771
762
757
753
753
746
744
744
746
750
752
747
749
749
745
742
742
740
744
746
739
735
734
733
734
734
744
751
765
774
782
781
784
782
780
771
767
761
755
752
748
741
741
740
739
737
734
739
744
746
746
745
744
744
742
737
740
738
742
742
739
741
745
743
761
768
775
781
775
787
785
781
781
770
768
758
756
752
750
753
750
748
748
746
748
744
745
748
748
751
745
743
742
742
739
734
732
735
739
744
751
756
763
780
781
783
786
783
786
779
774
770
768
759
756
748
745
747
746
750
750
749
750
749
748
747
746
748
747
745
748
750
751
742
743
742
740
746
756
767
769
778
780
785
784
778
773
774
765
761
756
752
748
746
740
739
740
740
745
748
744
748
748
746
747
742
741
737
741
744
740
745
740
737
738
748
754
764
770
777
781
784
780
774
769
764
761
755
753
750
747
746
746
746
745
746
744
745
746
745
746
742
743
739
740
740
735
735
738
737
746
752
759
768
770
780
785
787
789
786
783
778
770
766
762
758
754
752
748
748
752
748
749
750
750
751
748
749
752
751
745
749
746
746
741
744
754
751
760
769
778
785
791
792
792
792
785
788
776
775
769
763
759
756
751
749
747
746
751
749
752
751
750
749
748
748
742
745
739
742
741
740
741
741
744
752
755
766
780
782
788
787
789
787
783
780
769
762
760
758
758
754
750
753
754
752
755
753
754
754
754
758
750
750
746
745
749
739
739
748
747
746
750
763
766
768
773
780
784
788
785
788
783
775
769
763
758
751
746
756
747
749
743
750
748
748
744
747
746
752
750
749
746
742
741
740
736
736
738
748
759
766
773
780
786
787
786
783
783
774
774
768
757
754
750
746
744
745
743
747
754
750
748
750
754
750
745
744
744
742
746
744
741
742
739
741
745
757
764
777
784
788
790
791
791
791
782
773
774
769
767
759
753
755
752
750
747
747
748
747
748
752
754
750
756
751
746
744
746
746
746
745
744
748
751
759
763
771
781
784
792
791
790
786
780
776
770
764
762
756
755
752
751
748
750
747
750
749
748
751
754
752
751
750
750
748
737
739
744
738
747
747
748
753
759
769
773
778
784
788
787
784
781
776
771
768
757
754
753
753
753
751
753
750
745
749
745
749
754
748
744
740
741
739
742
742
740
743
745
749
755
755
764
768
775
780
780
779
780
777
774
767
762
758
755
751
746
745
744
744
744
744
744
738
738
739
741
741
740
744
748
745
748
744
737
734
731
729
733
740
747
757
772
776
782
790
791
785
785
787
778
772
768
763
752
747
743
739
743
744
747
747
749
752
750
748
742
739
736
737
749
739
738
741
738
749
748
752
765
773
783
788
796
792
792
791
784
781
774
773
767
764
764
759
758
755
755
751
755
758
760
760
758
757
752
750
749
747
747
747
745
749
747
746
750
755
763
772
777
783
790
789
786
788
781
779
772
765
760
755
756
756
757
756
752
750
749
750
750
753
755
753
751
747
748
746
744
743
747
745
744
750
751
761
765
768
774
779
781
782
780
777
774
769
762
754
750
750
750
749
750
751
748
749
750
749
748
747
749
748
747
747
744
740
740
738
737
739
748
758
768
774
778
784
785
784
782
774
774
766
763
757
759
753
747
744
742
738
743
743
748
750
754
750
751
751
750
746
746
742
747
748
750
753
756
764
770
781
788
791
796
795
795
790
784
779
771
764
760
761
755
756
756
757
753
752
759
758
754
755
753
754
757
753
751
752
748
746
746
749
754
763
770
774
786
792
791
791
793
796
791
789
784
779
770
767
758
754
753
752
755
755
755
756
758
750
752
751
751
757
753
755
748
748
745
744
743
744
751
762
774
784
785
793
799
795
792
794
785
778
779
772
764
759
760
751
750
750
750
759
757
757
756
754
758
751
752
747
747
748
749
753
752
746
748
747
748
754
762
770
777
790
790
790
782
783
780
773
774
766
762
762
754
750
751
750
751
749
746
753
754
755
750
748
748
745
743
742
739
741
741
743
746
741
750
757
765
775
780
781
783
795
779
780
777
770
761
754
750
752
747
748
747
748
748
748
748
747
750
748
751
749
745
746
742
740
740
736
736
742
748
757
763
773
780
786
788
792
792
791
786
784
782
771
765
759
759
755
752
753
753
753
753
751
751
753
752
748
751
750
749
751
749
744
750
743
748
747
751
763
772
782
788
790
790
792
789
784
780
774
771
768
766
761
756
754
752
747
749
752
756
758
752
750
751
749
749
745
748
748
749
747
747
743
746
750
756
761
773
783
790
798
797
796
794
786
778
769
762
755
754
749
750
745
746
746
747
744
753
750
753
755
756
754
756
754
753
750
745
743
745
745
743
746
748
761
765
770
774
785
786
783
781
774
768
764
758
750
746
746
745
745
744
745
747
747
748
745
744
747
744
745
744
742
743
741
740
734
740
744
752
763
773
779
786
790
791
787
784
780
776
772
768
761
756
753
748
747
748
749
751
754
753
753
754
753
751
749
753
751
748
750
752
745
751
748
758
758
769
778
785
795
796
797
794
789
782
776
770
768
761
762
758
754
755
755
753
752
752
751
754
753
754
752
752
749
750
744
747
745
745
747
748
758
765
770
781
784
788
792
791
791
788
780
781
770
765
758
752
750
748
752
752
749
754
755
754
751
753
755
751
754
754
749
750
745
741
737
743
749
756
766
776
777
786
780
787
783
779
773
772
767
760
753
742
746
749
741
745
746
747
749
749
752
750
750
749
743
742
742
742
743
747
742
749
750
755
760
773
784
789
792
792
786
782
779
772
763
758
765
755
758
752
747
747
750
750
745
748
749
750
750
751
747
746
743
742
740
740
741
746
754
762
771
781
787
791
793
792
792
788
790
778
774
767
759
757
748
746
744
745
748
747
748
749
750
757
747
747
748
748
750
745
743
745
743
747
751
755
763
773
782
792
792
793
789
787
779
775
773
764
762
757
753
752
747
747
743
743
747
748
752
750
752
750
749
746
741
742
740
739
741
740
744
746
757
762
766
774
778
790
793
784
774
774
766
764
755
754
747
745
743
739
748
746
744
741
748
745
747
752
749
749
743
742
739
742
735
736
740
746
754
761
769
776
782
786
781
782
784
781
779
768
764
762
756
754
750
749
746
751
752
750
753
750
748
748
745
748
747
746
747
742
742
743
741
745
747
752
762
771
779
785
789
791
789
785
778
771
768
764
760
756
751
750
747
747
747
742
750
754
753
746
753
752
749
746
739
740
746
739
739
740
737
744
748
755
762
771
779
790
786
792
791
782
775
773
762
758
754
755
750
748
746
746
745
746
743
745
747
766
747
748
746
744
745
744
742
732
733
736
738
744
744
748
762
762
762
769
771
776
775
770
769
765
753
754
748
746
744
744
742
741
743
740
741
741
740
738
742
741
745
741
739
742
737
737
734
731
738
741
748
760
768
770
775
780
777
779
782
774
769
763
760
753
751
745
747
748
746
746
748
747
747
749
748
747
743
739
741
743
742
743
741
740
742
744
736
744
753
766
778
778
784
783
782
782
775
771
767
764
761
756
757
750
746
748
744
743
744
747
750
747
749
746
747
746
744
744
743
744
743
741
744
740
744
745
750
754
766
773
780
778
780
781
775
768
764
758
758
755
751
754
751
748
746
746
746
743
747
749
745
749
747
745
735
744
739
739
737
740
737
740
747
748
753
759
765
769
776
779
779
776
775
771
760
755
748
746
743
740
745
744
745
743
744
742
742
744
742
741
750
744
744
742
736
738
736
734
739
743
750
756
763
771
772
768
773
773
772
769
767
765
760
762
755
750
747
745
746
748
749
753
755
749
748
743
742
744
744
744
749
744
743
744
743
748
751
758
765
769
777
785
787
786
785
775
772
777
764
764
762
759
756
756
752
752
752
750
749
757
753
753
749
751
748
746
744
745
742
744
746
744
745
748
755
757
769
769
775
779
782
779
778
776
769
767
760
755
755
754
754
756
755
753
751
749
750
749
752
753
752
758
748
746
746
743
743
743
743
746
750
753
760
765
772
770
773
772
772
771
768
767
758
757
749
746
742
741
740
743
747
746
744
744
747
747
743
743
744
742
746
748
745
743
746
739
746
747
752
763
769
776
776
776
776
772
768
763
760
758
760
754
759
753
757
750
749
750
753
755
758
759
758
755
753
752
751
749
746
746
747
749
752
755
762
768
773
778
783
786
785
785
781
777
772
766
761
754
753
751
755
756
753
753
755
753
757
758
751
751
756
756
752
753
750
747
747
745
748
754
762
766
773
780
781
788
780
779
777
774
774
770
766
758
758
758
754
748
751
753
751
755
756
749
756
753
750
749
749
750
748
751
746
747
746
750
753
758
772
774
780
783
781
783
781
775
771
766
762
763
762
756
753
752
749
748
750
751
754
755
754
751
754
754
754
750
747
744
746
748
752
754
754
760
772
771
774
779
783
782
781
781
781
771
766
762
757
751
752
748
749
753
751
752
752
748
746
749
747
748
750
753
750
744
749
745
743
744
747
755
762
770
778
777
776
782
781
779
778
775
773
769
764
761
759
757
753
750
751
754
755
753
754
755
753
752
751
759
750
750
751
749
747
744
749
745
748
752
757
764
771
783
779
775
782
780
772
767
764
760
762
750
757
754
753
751
754
750
751
749
752
755
755
752
749
745
745
740
743
744
745
750
753
754
758
764
770
772
775
775
777
777
777
772
765
762
752
751
752
753
754
755
753
753
748
750
750
748
748
748
745
746
743
745
741
743
742
740
742
755
759
766
769
782
781
782
782
782
779
777
777
772
770
764
758
761
756
753
753
757
757
757
763
757
756
754
747
748
744
745
746
745
747
747
747
748
750
754
762
768
774
779
782
784
779
777
773
771
767
768
765
761
760
761
754
756
754
753
754
757
757
756
757
757
754
750
748
746
747
748
749
747
747
748
752
759
762
765
771
773
777
775
776
769
763
759
752
748
746
748
744
747
748
749
749
750
745
747
748
750
751
748
750
746
740
745
739
741
744
750
755
761
769
772
775
776
774
771
772
772
769
764
762
759
754
753
749
753
753
752
757
754
754
756
755
755
753
749
753
752
752
748
749
749
750
748
752
758
767
776
788
783
785
783
780
777
770
768
766
766
765
759
762
757
753
752
749
746
753
756
758
755
755
753
752
752
745
744
750
748
744
748
751
755
761
768
768
775
781
782
783
779
775
770
767
760
757
755
754
753
754
755
755
756
755
751
751
752
751
753
749
757
747
752
749
745
741
743
747
755
761
764
769
775
777
779
775
772
768
771
763
758
753
752
751
748
746
748
749
751
754
755
756
750
750
749
736
747
749
748
750
745
747
747
752
753
761
768
773
779
784
786
778
779
777
769
765
762
759
760
760
759
756
756
754
753
751
753
754
755
758
753
757
751
752
747
747
747
749
754
765
765
771
779
782
786
789
790
789
788
783
779
777
778
765
766
755
757
758
756
757
754
756
756
754
751
752
752
754
753
755
749
750
748
748
743
747
753
763
770
775
782
786
788
787
783
779
775
769
769
764
758
754
752
751
750
752
751
755
753
759
753
756
753
751
749
748
745
742
747
742
740
745
748
750
757
766
773
778
782
782
780
777
778
765
762
755
752
750
751
749
749
753
751
747
750
748
748
749
751
749
747
746
747
743
746
743
746
750
758
764
775
778
780
780
783
779
778
776
774
770
767
762
760
754
753
750
751
751
750
753
755
753
752
751
748
749
754
747
748
753
747
746
749
755
760
769
774
781
787
788
791
787
782
782
772
766
763
760
758
758
755
755
756
752
752
753
753
753
757
755
755
753
751
751
750
746
745
747
750
754
762
769
771
781
784
787
786
781
785
775
778
766
763
757
756
751
748
750
754
754
759
756
755
757
755
748
750
749
747
750
746
749
745
745
746
749
758
765
771
769
780
782
784
782
776
771
765
762
752
755
754
750
747
747
746
746
748
751
755
754
758
751
751
752
747
748
748
746
748
746
750
752
756
765
768
787
783
783
786
786
782
774
767
765
759
752
758
747
752
749
754
754
749
749
751
755
750
753
755
753
742
749
750
745
744
742
745
749
758
763
779
778
780
784
782
781
779
776
773
768
769
762
756
756
752
747
750
750
753
755
759
754
752
750
747
746
749
750
750
753
749
750
748
750
755
758
764
772
776
780
781
779
776
776
767
765
759
760
755
753
751
753
752
750
749
747
749
750
752
752
748
746
745
751
741
739
740
741
743
750
752
754
758
764
766
770
776
774
773
768
770
758
754
751
743
743
741
744
743
747
748
749
748
749
747
751
745
746
746
742
744
742
738
740
740
746
750
759
766
774
778
781
785
781
770
775
768
769
764
759
758
752
754
750
747
747
748
748
753
751
750
751
749
747
743
743
744
745
750
745
750
749
752
756
757
763
771
773
780
777
778
776
773
767
762
759
756
754
753
752
751
750
750
745
753
749
748
754
751
751
748
746
746
744
741
741
744
745
749
751
757
763
767
771
772
773
780
767
770
762
760
753
750
747
741
739
743
742
745
746
749
742
749
743
742
741
744
746
745
742
743
742
742
744
746
750
761
766
773
775
778
778
779
778
770
765
767
761
761
756
751
751
749
747
747
750
746
752
755
761
757
756
755
751
747
749
747
748
750
748
751
758
761
770
770
774
776
780
777
781
773
770
765
760
762
752
751
750
754
754
754
753
753
759
750
755
756
754
752
752
751
751
748
749
744
745
749
759
762
772
775
780
784
782
779
776
774
772
769
760
761
753
754
749
750
751
753
756
756
755
754
755
754
753
746
747
745
747
751
745
743
743
747
751
751
758
764
770
776
776
774
770
770
765
768
758
753
752
751
749
748
752
748
745
748
746
750
750
757
751
751
751
749
745
742
745
741
743
753
753
759
768
766
768
777
776
781
779
780
776
774
775
766
759
756
752
751
754
760
759
751
758
757
757
753
755
752
755
756
754
754
752
751
748
748
754
759
767
777
779
779
786
781
777
776
775
773
767
768
763
760
759
757
754
752
756
751
754
755
756
755
750
751
750
746
750
750
747
745
745
750
751
750
754
754
762
769
774
777
774
769
771
768
767
760
757
753
753
752
751
746
748
753
750
747
749
751
754
754
750
749
750
746
746
748
743
747
749
750
756
760
768
771
774
777
775
776
777
773
771
766
760
755
753
751
751
756
748
752
750
755
753
751
746
750
749
751
754
750
750
749
749
747
748
750
757
766
771
777
784
787
784
781
777
776
771
768
765
762
756
756
755
750
755
745
747
756
751
751
754
753
751
748
749
746
745
748
747
748
752
747
757
764
768
773
775
781
780
783
780
779
769
766
762
758
757
754
756
753
757
758
758
756
754
754
753
757
757
758
753
751
749
748
752
745
747
751
760
764
776
776
776
777
777
774
773
769
767
761
758
756
749
752
751
745
750
751
754
754
756
756
754
758
749
752
747
750
751
745
746
751
751
756
764
769
781
784
790
786
788
785
780
776
770
770
763
762
759
759
757
754
750
751
749
752
756
757
761
757
757
756
755
753
746
754
751
754
757
765
773
781
777
789
789
790
791
784
785
778
775
765
761
758
751
752
751
754
756
756
759
759
757
757
751
753
752
752
753
752
755
753
754
755
762
767
772
780
785
785
791
791
783
782
772
768
764
764
762
757
756
754
753
753
750
751
753
752
759
758
754
755
753
756
750
747
749
749
755
757
761
772
777
783
782
785
790
788
785
777
770
765
761
754
751
750
752
751
754
754
752
753
753
753
750
750
753
753
754
751
750
748
746
751
754
765
769
785
792
793
797
796
792
786
779
777
772
768
767
765
759
757
757
753
752
756
757
760
762
754
759
755
749
747
746
746
747
754
753
757
762
773
784
785
789
797
794
794
794
786
781
777
773
768
760
755
757
758
758
753
753
756
753
754
750
751
760
754
752
751
748
749
746
743
742
744
752
759
769
776
782
788
790
794
786
783
774
778
772
764
760
757
755
756
750
758
751
755
756
755
755
754
755
753
746
739
744
745
743
741
742
746
742
749
752
763
771
784
783
783
782
782
774
770
763
762
757
748
750
746
746
748
748
749
748
746
750
750
751
747
747
747
741
742
742
746
742
745
749
751
764
772
777
781
784
786
788
789
784
783
776
771
763
759
754
751
747
750
749
751
751
753
750
752
751
753
752
752
748
748
740
742
742
744
744
745
753
761
772
783
787
790
790
786
778
777
778
773
769
763
762
756
752
750
749
750
751
752
755
761
754
751
750
748
748
745
745
748
746
745
745
742
744
748
756
764
774
781
787
788
791
788
778
773
768
764
760
756
752
752
749
750
747
744
744
745
749
747
753
753
748
746
744
747
743
739
739
743
742
742
747
756
762
766
772
781
782
784
785
778
774
772
762
754
752
745
748
747
746
746
739
750
743
748
747
745
746
747
748
751
747
750
744
738
739
737
743
752
756
771
778
787
788
796
788
784
780
781
770
768
762
758
752
750
748
745
746
748
750
754
752
753
749
749
744
748
747
747
747
742
742
741
742
748
754
764
777
785
790
791
790
790
786
781
775
765
765
765
761
758
756
755
749
750
750
752
752
759
756
750
753
750
748
748
741
742
743
743
740
743
746
751
759
763
769
784
785
788
788
785
784
780
771
763
763
754
751
752
752
750
750
752
749
746
748
748
748
752
751
752
751
749
741
739
739
742
744
752
760
767
774
780
788
783
784
782
781
773
773
766
760
755
750
745
746
743
747
750
750
751
747
748
748
747
749
748
745
744
746
742
742
741
742
747
754
763
776
785
789
792
792
789
786
780
774
770
765
765
762
758
756
753
751
753
750
751
756
753
754
753
749
748
743
742
742
741
745
745
745
749
754
760
763
773
781
785
791
796
795
795
787
781
775
771
768
764
761
756
755
757
757
757
754
752
752
754
755
753
757
749
749
745
744
738
738
739
739
743
748
755
759
774
781
783
788
787
803
786
782
778
770
766
763
761
754
754
754
754
758
758
757
757
757
754
752
751
750
748
751
751
747
743
743
737
739
741
747
756
761
771
780
785
785
784
783
784
777
772
769
759
759
752
748
747
740
747
744
745
747
749
747
748
744
744
740
742
742
745
742
741
743
748
743
748
755
761
774
785
787
789
788
784
781
775
770
765
760
756
758
753
754
753
749
750
746
750
755
755
753
753
752
754
754
750
746
742
743
749
746
746
757
762
769
780
784
787
793
794
793
788
783
774
772
757
758
755
755
756
756
753
754
755
753
752
751
749
748
749
750
748
746
745
742
740
734
739
742
751
751
768
775
780
786
791
784
783
778
777
775
762
763
753
748
746
748
749
746
751
752
751
750
751
750
748
749
747
748
746
746
742
744
743
736
745
754
764
770
782
785
787
787
786
778
767
760
762
761
755
756
751
748
