=~=~=~=~=~=~=~=~=~=~=~= PuTTY log 2023.06.06 23:19:33 =~=~=~=~=~=~=~=~=~=~=~=
53870,493,34.48
53885,496,34.16
53900,494,33.84
53915,490,33.84
53930,490,34.16
53945,487,35.13
53960,483,32.55
53975,486,34.80
53990,492,35.45
54005,489,33.84
54020,494,34.48
54035,497,35.13
54050,506,34.48
54065,519,34.48
54080,531,35.13
54095,550,34.48
54110,567,34.80
54125,571,33.19
54140,580,33.52
54155,579,34.80
54170,574,34.48
54185,558,35.13
54200,556,34.80
54215,543,33.84
54230,531,34.16
54245,514,34.80
54260,508,32.87
54275,499,33.19
54290,488,35.13
54305,487,34.80
54320,478,34.48
54335,483,34.80
54350,475,34.80
54365,485,33.19
54380,489,34.48
54395,493,33.19
54410,488,34.16
54425,502,34.48
54440,499,33.84
54455,491,35.13
54470,497,33.19
54485,495,34.80
54500,494,33.19
54515,483,32.55
54530,491,34.16
54545,486,34.48
54560,493,34.16
54575,497,34.16
54590,491,32.55
54606,490,34.80
54621,485,34.80
54636,484,34.80
54651,491,32.87
54666,502,33.52
54681,513,33.84
54697,531,34.48
54712,546,34.80
54727,566,34.80
54742,567,34.48
54757,581,34.48
54772,580,35.13
54788,576,34.48
54804,561,34.80
54819,555,33.19
54835,546,34.16
54850,533,33.19
54866,522,34.48
54882,503,34.80
54897,498,34.48
54912,494,34.80
54927,488,33.52
54943,477,33.84
54959,482,33.84
54975,485,34.16
54991,490,34.16
55007,483,33.84
55022,492,34.48
55038,496,34.48
55054,499,34.16
55069,499,33.19
55085,498,34.16
55100,501,34.16
55116,494,34.80
55132,495,34.16
55147,485,34.48
55163,489,34.48
55179,488,34.48
55195,486,33.19
55211,484,32.87
55226,487,34.16
55242,492,34.80
55258,490,34.80
55274,492,34.80
55290,500,34.48
55306,503,34.48
55322,522,34.16
55338,544,34.48
55354,560,32.87
55369,562,33.84
55385,578,32.87
55401,568,33.19
55417,569,33.19
55433,562,34.48
55449,542,33.52
55465,537,34.80
55480,525,32.55
55496,518,32.23
55512,508,34.16
55528,498,34.48
55544,489,33.52
55560,482,33.19
55575,475,34.48
55591,484,34.80
55606,486,34.16
55622,490,33.19
55638,490,34.48
55653,492,32.87
55669,498,34.80
55684,500,34.48
55700,499,34.48
55716,491,34.48
55731,496,34.48
55747,491,33.19
55762,492,32.87
55777,485,34.16
55792,499,34.48
55808,491,34.80
55824,493,34.48
55839,486,33.19
55855,485,34.80
55870,489,34.16
55885,487,33.52
55900,489,33.19
55915,489,32.87
55930,508,34.16
55945,519,33.19
55960,545,34.80
55976,560,34.48
55991,573,34.16
56006,579,34.48
56021,575,33.84
56036,570,33.84
56051,570,34.16
56066,558,33.19
56081,541,33.52
56096,537,34.48
56111,519,33.52
56126,516,34.80
56141,499,32.87
56157,486,33.19
56172,480,33.52
56187,487,34.80
56202,482,34.48
56217,473,34.48
56232,481,34.48
56247,487,34.80
56262,493,34.80
56277,496,34.80
56292,500,33.84
56307,499,34.80
56322,501,34.16
56337,494,32.55
56352,495,34.80
56367,493,33.19
56382,482,33.52
56397,490,33.19
56412,486,33.19
56427,484,33.52
56442,491,34.80
56457,490,32.87
56472,493,34.80
56487,484,34.80
56502,488,32.55
56517,491,34.16
56532,494,34.16
56547,497,34.80
56562,512,33.19
56577,528,34.80
56592,547,33.19
56607,568,34.16
56622,568,34.48
56637,581,34.48
56652,575,34.80
56667,577,34.80
56682,572,33.19
56697,560,33.19
56712,553,33.84
56727,539,33.52
56742,533,33.52
56757,520,33.52
56772,502,33.84
56787,500,34.16
56802,485,33.19
56817,476,34.48
56832,477,34.80
56847,477,34.16
56862,481,34.48
56877,487,34.16
56892,490,33.19
56907,492,34.48
56922,496,34.48
56937,492,34.80
56952,493,32.87
56967,498,34.48
56982,495,34.48
56997,484,33.19
57012,491,32.87
57027,492,34.16
57042,494,34.48
57057,492,34.48
57072,484,33.84
57087,486,33.19
57102,487,34.80
57117,486,33.19
57132,488,34.48
57147,489,33.19
57162,491,34.48
57177,494,34.48
57192,500,32.87
57207,511,35.13
57222,520,33.19
57237,537,34.80
57252,556,33.19
57267,577,34.48
57282,575,35.13
57297,579,34.16
57313,580,34.80
57328,575,34.80
57343,566,33.52
57358,560,34.80
57374,547,34.48
57389,531,33.84
57404,517,34.48
57419,501,33.84
57434,500,34.16
57449,485,34.48
57465,474,34.80
57481,474,33.52
57496,474,33.19
57512,486,33.19
57528,488,34.16
57543,483,33.84
57559,487,34.80
57574,499,34.16
57590,499,34.48
57606,495,32.87
57621,497,34.80
57637,491,33.19
57652,494,34.16
57668,494,33.19
57684,489,34.80
57700,486,34.48
57716,491,34.80
57732,487,34.16
57747,489,34.48
57763,486,34.48
57779,487,32.55
57794,488,34.48
57810,492,34.80
57826,495,34.80
57841,497,34.80
57857,505,34.16
57873,518,34.16
57889,528,34.48
57905,546,32.55
57920,564,32.87
57936,578,34.16
57952,586,34.80
57968,578,33.19
57984,574,34.48
58000,565,34.16
58015,546,34.80
58031,537,34.80
58047,530,33.19
58062,518,34.48
58077,503,34.80
58092,496,34.48
58108,496,34.48
58124,483,34.48
58140,479,32.87
58156,485,34.16
58171,478,34.80
58187,491,32.87
58203,486,34.80
58218,493,33.19
58234,498,34.16
58249,496,34.48
58265,494,34.16
58281,487,34.48
58296,500,34.48
58311,494,33.52
58326,494,34.48
58342,488,33.52
58357,493,33.52
58372,491,34.48
58387,491,32.87
58402,489,33.19
58417,487,33.84
58433,491,34.48
58448,489,34.80
58463,486,34.16
58478,491,34.80
58493,500,33.19
58508,513,34.80
58523,527,34.48
58538,534,33.84
58553,559,33.52
58568,569,34.80
58583,583,34.48
58598,581,34.80
58613,574,33.84
58628,575,34.16
58644,559,34.80
58659,554,34.80
58674,544,34.48
58689,529,33.19
58704,511,33.84
58719,505,33.19
58734,498,34.48
58749,488,34.16
58765,480,34.48
58780,481,34.16
58795,481,34.48
58810,478,34.16
58825,483,32.55
58840,485,34.16
58855,498,35.13
58870,501,34.80
58885,501,32.87
58900,504,34.48
58915,498,34.48
58930,498,33.19
58945,497,34.80
58960,497,33.84
58975,494,34.80
58990,492,33.52
59005,492,33.52
59020,489,34.80
59035,488,34.48
59050,485,32.87
59065,487,34.80
59080,488,34.48
59095,486,33.19
59110,492,34.80
59125,497,34.48
59140,496,35.77
59155,505,33.19
59170,519,34.48
59185,540,34.48
59200,558,35.13
59215,570,34.80
59230,582,33.84
59245,578,33.84
59260,584,32.87
59275,579,33.19
59290,574,34.48
59305,560,32.87
59320,553,34.48
59335,539,34.80
59350,528,33.52
59365,517,34.80
59380,505,34.48
59395,492,33.52
59410,490,33.19
59425,490,33.52
59440,483,33.52
59455,489,34.48
59470,495,35.13
59485,484,34.80
59500,493,33.19
59515,496,34.48
59530,490,34.80
59545,502,34.16
59560,495,33.52
59575,500,34.80
59590,502,34.48
59605,501,38.35
59620,493,34.48
59635,488,33.84
59650,495,35.13
59665,489,33.52
59680,489,34.48
59695,480,33.52
59710,484,34.80
59725,488,33.19
59740,484,34.80
59755,489,34.80
59770,492,33.19
59785,494,34.16
59800,501,35.45
59815,510,32.87
59830,526,32.55
59845,547,34.48
59860,555,34.80
59875,574,34.48
59890,575,34.48
59905,586,34.80
59920,580,34.80
59935,565,33.19
59950,561,32.87
59965,547,34.80
59981,527,34.80
59996,528,33.52
60011,519,34.48
60026,507,33.52
60041,502,33.84
60056,489,34.48
60072,480,32.55
60087,483,34.48
60102,484,34.80
60117,485,34.48
60132,483,34.48
60147,486,34.48
60162,493,34.16
60177,498,34.80
60193,494,33.19
60209,500,32.87
60224,504,34.48
60240,502,33.52
60255,500,34.48
60271,493,33.84
60286,495,34.16
60301,493,34.48
60316,483,34.48
60331,489,33.84
60347,491,34.80
60363,489,33.19
60378,490,34.80
60393,485,34.80
60409,494,33.52
60425,491,35.13
60441,499,35.13
60456,511,34.48
60471,519,34.80
60487,534,33.52
60503,560,33.52
60519,571,34.80
60535,578,34.48
60551,576,34.48
60566,572,32.55
60582,569,34.80
60597,558,34.16
60612,542,34.80
60628,546,34.16
60644,528,34.48
60659,513,32.87
60674,512,34.48
60690,500,34.80
60705,491,34.16
60721,488,34.48
60737,484,34.80
60752,487,33.19
60768,480,33.84
60783,492,34.48
60799,499,33.19
60815,500,34.80
60830,494,33.84
60846,497,32.87
60861,499,34.80
60877,500,34.16
60893,500,34.80
60908,499,34.48
60924,497,34.48
60939,494,34.48
60954,491,34.80
60970,485,34.16
60985,486,35.13
61000,490,34.48
61015,479,33.52
61030,488,34.48
61045,489,33.19
61060,492,34.48
61075,499,33.19
61090,505,34.80
61105,524,33.19
61120,540,34.80
61135,557,34.48
61150,566,35.13
61165,581,34.16
61180,584,34.48
61196,571,33.84
61212,573,34.48
61227,563,33.84
61242,560,34.48
61257,552,34.48
61272,529,34.48
61287,519,34.80
61302,515,33.19
61317,506,33.19
61332,499,35.13
61347,489,33.52
61362,486,34.80
61377,489,34.48
61392,489,33.19
61407,496,32.87
61422,497,34.16
61437,496,34.80
61452,495,35.13
61467,502,33.84
61482,502,34.48
61497,496,34.48
61512,493,34.48
61527,497,33.52
61542,499,33.52
61557,492,34.16
61572,495,33.19
61587,485,33.19
61602,492,34.16
61617,484,33.19
61632,488,32.87
61647,490,33.52
61662,490,33.19
61677,494,34.48
61692,487,34.48
61707,489,34.80
61722,500,33.19
61737,510,33.52
61752,525,34.16
61767,545,34.48
61782,558,33.19
61797,571,34.80
61812,577,34.80
61827,581,33.52
61842,590,34.80
61857,578,33.52
61872,571,34.80
61887,558,33.19
61902,543,33.52
61917,527,33.19
61932,526,34.80
61947,512,33.52
61962,503,34.80
61977,490,34.48
61992,492,33.19
62007,493,34.80
62022,491,33.84
62037,490,35.13
62052,493,34.80
62067,493,34.48
62082,497,34.16
62097,498,33.52
62112,492,34.48
62127,499,34.48
62142,500,34.80
62157,503,33.19
62172,496,35.13
62187,496,34.16
62202,494,32.87
62217,491,34.48
62232,492,33.19
62247,482,33.19
62262,478,34.48
62277,492,34.16
62292,490,34.80
62307,490,35.77
62322,487,34.16
62337,490,33.19
62352,493,34.48
62367,493,34.48
62382,493,34.80
62397,508,34.48
62412,524,34.16
62427,538,32.87
62442,558,33.84
62457,577,34.80
62472,583,35.13
62487,586,34.16
62502,584,34.48
62517,572,33.19
62532,562,33.19
62547,551,34.16
62562,543,34.48
62577,535,34.48
62592,526,34.48
62607,512,33.19
62622,498,34.80
62637,499,34.16
62652,491,33.19
62667,486,34.48
62682,487,34.48
62697,482,33.84
62712,487,34.16
62727,492,34.48
62742,495,34.80
62757,500,33.19
62772,492,33.52
62787,492,34.16
62802,500,33.19
62817,493,34.48
62832,493,34.80
62847,496,34.48
62862,493,34.48
62877,485,34.80
62892,494,34.48
62907,498,34.48
62922,484,34.48
62937,484,33.19
62952,489,34.48
62967,490,34.80
62982,490,35.13
62997,477,34.80
63012,493,33.19
63027,497,34.48
63042,504,33.52
63057,520,34.48
63072,533,34.80
63087,548,33.19
63102,560,34.80
63117,575,34.80
63132,581,34.48
63147,573,34.80
63162,568,33.19
63177,570,34.48
63192,557,33.19
63207,548,33.19
63222,535,34.48
63237,524,32.87
63252,519,34.16
63267,500,33.19
63282,499,34.48
63297,489,34.48
63312,486,34.16
63327,486,34.80
63342,488,34.48
63357,486,32.87
63372,491,33.19
63387,493,34.16
63402,492,33.19
63417,502,34.48
63432,503,34.48
63447,497,34.16
63462,497,33.19
63477,492,33.52
63492,496,34.80
63507,499,34.48
63522,495,34.80
63537,487,33.19
63552,491,33.52
63567,485,32.87
63582,492,33.19
63597,489,34.80
63612,481,34.80
63627,484,33.84
63642,490,34.48
63657,490,32.87
63672,490,33.19
63687,497,33.19
63702,512,34.48
63717,518,33.19
63732,542,33.84
63747,556,34.48
63762,574,34.16
63777,583,33.84
63792,588,35.13
63807,579,34.80
63822,580,34.48
63837,570,34.48
63852,560,34.80
63867,548,34.80
63882,538,32.87
63897,525,34.80
63912,515,34.80
63927,506,33.84
63942,495,32.55
63957,485,34.48
63972,484,34.80
63987,489,34.48
64002,494,34.48
64017,484,33.19
64032,491,34.80
64047,491,32.87
64062,499,34.48
64077,493,34.80
64092,503,34.80
64107,497,33.52
64122,494,34.48
64137,499,32.55
64152,491,34.48
64167,487,33.84
64182,488,33.19
64197,481,34.16
64212,488,34.48
64227,484,35.13
64242,494,33.52
64257,492,32.87
64272,494,33.84
64287,489,33.84
64302,493,34.80
64317,489,32.87
64332,490,33.52
64347,497,33.52
64362,506,34.80
64377,522,34.48
64392,541,34.16
64407,553,34.48
64422,572,33.19
64437,580,34.48
64452,587,34.48
64467,585,34.16
64482,571,34.48
64497,568,34.16
64512,551,33.84
64527,547,34.80
64542,539,34.80
64557,530,34.48
64572,520,34.48
64587,509,33.19
64602,501,34.80
64617,492,34.80
64632,481,34.48
64647,488,34.80
64662,483,33.84
64677,489,34.48
64692,486,34.80
64707,497,34.48
64722,498,34.48
64737,500,33.19
64752,496,34.48
64767,499,34.48
64782,500,34.48
64797,500,33.84
64812,497,34.48
64827,491,34.48
64842,489,33.19
64857,494,34.80
64872,493,34.48
64887,494,34.48
64902,496,34.16
64917,492,34.48
64932,484,33.19
64947,488,34.80
64962,488,34.80
64977,488,33.19
64992,485,33.84
65007,494,34.48
65022,498,36.09
65037,502,34.80
65052,517,34.16
65067,536,34.48
65082,553,34.80
65097,561,33.52
65112,577,33.52
65127,575,33.19
65142,580,32.87
65157,578,34.80
65172,560,33.19
65187,551,35.13
65202,546,34.48
65217,539,35.13
65232,520,34.48
65247,510,34.16
65262,501,34.80
65277,494,34.48
65292,492,34.80
65307,479,34.16
65322,487,34.80
65337,488,33.84
65352,485,34.48
65367,494,33.19
65382,498,34.80
65397,495,32.55
65412,498,34.16
65427,502,34.48
65442,495,34.80
65457,501,35.45
65472,503,33.84
65487,490,33.19
65502,497,34.16
65517,495,34.48
65532,486,34.48
65547,489,34.48
65562,487,34.48
65577,490,34.48
65592,491,35.13
65607,494,34.48
65622,498,34.48
65637,495,33.84
65652,494,34.80
65667,498,34.48
65682,505,32.87
65697,510,32.87
65712,530,34.48
65727,548,32.87
65742,562,34.16
65757,566,33.19
65772,582,34.80
65787,582,34.48
65802,575,32.87
65817,568,34.48
65832,551,34.16
65847,537,33.19
65862,535,34.48
65877,525,34.48
65892,516,34.48
65907,503,34.48
65922,499,34.48
65937,494,34.48
65952,484,34.48
65967,484,33.19
65982,484,34.48
65997,488,32.87
66012,490,33.19
66027,496,34.48
66042,498,34.80
66057,503,34.16
66072,505,34.48
66087,502,34.48
66102,503,35.13
66117,499,34.80
66132,498,34.48
66147,496,33.19
66162,495,34.80
66177,493,34.80
66192,494,34.48
66207,486,34.48
66222,492,34.16
66237,492,34.48
66252,488,33.52
66267,495,34.16
66282,492,34.16
66297,493,35.13
66312,497,34.80
66327,506,34.16
66342,517,33.52
66357,534,34.48
66372,552,33.52
66387,567,34.48
66402,568,34.80
66417,584,34.16
66432,584,34.48
66447,579,32.55
66462,571,34.80
66477,562,33.19
66492,549,34.80
66507,537,34.80
66522,532,33.19
66537,514,34.48
66552,508,33.84
66567,498,34.16
66582,483,34.48
66597,476,34.48
66612,480,35.13
66627,475,34.48
66642,487,34.48
66657,493,34.16
66672,495,33.19
66687,499,34.80
66702,502,33.84
66717,504,34.48
66732,499,33.52
66747,501,34.16
66762,496,33.84
66777,492,34.48
66792,496,33.52
66807,489,34.16
66822,492,33.84
66837,488,32.87
66852,485,34.80
66867,486,33.19
66882,490,32.55
66897,488,33.52
66912,487,33.52
66927,489,34.48
66942,492,32.87
66957,499,33.84
66972,503,34.80
66987,520,33.19
67002,541,33.19
67017,553,34.48
67032,572,34.48
67047,578,32.87
67062,580,34.80
67077,579,34.80
67092,573,33.19
67107,563,34.80
67122,553,34.80
67137,551,34.48
67152,537,34.48
67167,519,33.52
67182,513,34.16
67197,497,34.80
67212,494,34.80
67227,487,34.80
67242,485,34.16
67257,478,33.52
67272,479,33.19
67287,489,34.48
67302,486,34.48
67317,494,34.16
67332,495,34.48
67347,500,34.48
67362,492,34.48
67377,500,34.80
67392,500,34.48
67407,492,34.16
67422,491,34.48
67437,494,35.13
67452,494,34.16
67467,488,32.87
67482,486,34.48
67497,488,34.48
67512,484,33.19
67527,489,32.55
67542,484,34.48
67557,494,34.80
67572,495,33.52
67587,493,34.80
67602,503,32.87
67617,526,33.19
67632,533,34.16
67647,553,34.48
67662,565,34.48
67677,576,34.16
67692,578,34.48
67707,580,34.16
67722,568,34.48
67737,558,34.80
67752,551,33.19
67767,540,34.48
67782,530,34.16
67797,518,34.48
67812,505,34.48
67827,500,33.19
67842,495,34.48
67857,494,34.48
67872,489,34.80
67887,490,32.87
67902,490,34.48
67917,496,34.16
67932,494,34.16
67947,490,33.52
67962,499,34.16
67977,496,34.16
67992,502,34.48
68007,504,34.48
68022,503,34.16
68037,499,33.19
68052,499,34.16
68067,491,34.80
68082,494,34.80
68097,492,32.87
68112,491,34.80
68127,484,34.80
68142,492,33.19
68157,490,34.48
68172,494,34.48
68187,494,34.80
68202,492,34.48
68217,512,34.80
68232,517,34.80
68247,533,34.48
68262,555,34.48
68277,570,33.52
68292,571,34.16
68307,581,33.19
68322,585,34.80
68337,578,33.84
68352,563,32.87
68367,555,33.19
68382,546,34.48
68397,525,34.80
68412,523,34.48
68427,513,34.48
68442,498,33.52
68457,498,34.48
68472,493,33.84
68487,487,33.52
68502,486,34.48
68517,488,34.48
68532,481,34.48
68547,491,34.48
68562,492,34.80
68577,495,34.16
68592,498,34.48
68607,495,34.80
68622,494,34.80
68637,500,34.80
68652,497,34.48
68667,497,33.84
68682,489,34.80
68697,492,35.13
68712,487,33.52
68727,491,34.16
68742,489,34.80
68757,492,34.80
68772,491,34.16
68787,491,34.48
68802,485,34.80
68817,490,34.16
68832,497,34.80
68847,510,34.80
68862,531,34.80
68877,550,34.48
68892,567,34.80
68907,576,33.19
68922,582,33.84
68937,585,35.13
68952,576,33.19
68967,571,34.48
68982,555,34.80
68997,551,34.48
69012,537,34.48
69027,521,34.80
69042,521,34.16
69057,507,33.52
69072,502,34.80
69087,494,34.80
69102,488,34.48
69117,484,33.52
69132,480,34.80
69147,490,34.16
69162,477,32.87
69177,472,34.16
69192,491,34.48
69207,499,34.80
69222,492,34.80
69237,498,33.52
69252,498,34.48
69267,489,34.80
69282,498,34.48
69297,495,34.16
69312,485,34.80
69327,491,33.19
69342,492,34.80
69357,487,33.19
69372,492,34.16
69387,480,34.80
69402,485,33.84
69417,489,34.80
69432,488,34.80
69447,497,34.80
69462,502,34.80
69477,515,33.52
69492,538,33.19
69507,559,33.52
69522,572,33.19
69537,582,33.19
69552,581,34.16
69567,578,34.80
69582,569,34.80
69597,560,34.48
69612,551,34.80
69627,531,34.16
69642,527,32.87
69657,512,34.80
69672,506,34.80
69687,500,33.19
69702,488,34.48
69717,485,33.84
69732,481,34.48
69747,478,34.80
69762,476,32.87
69777,485,34.48
69792,482,32.87
69807,488,34.80
69822,491,33.52
69837,491,33.19
69852,498,33.52
69867,498,32.87
69882,497,32.87
69897,495,34.16
69912,491,34.48
69927,495,34.48
69942,494,34.48
69957,492,34.48
69972,487,34.48
69987,489,33.52
70002,489,32.87
70017,490,34.16
70032,490,34.48
70047,492,34.16
70062,495,34.48
70077,505,33.52
70092,516,32.55
70107,531,34.48
70122,549,33.84
70137,567,33.84
70152,577,34.48
70167,575,34.80
70182,576,33.52
70197,574,34.48
70212,570,34.16
70227,546,34.48
70242,540,34.16
70257,530,34.48
70272,520,34.80
70287,502,34.80
70302,500,33.84
70317,487,34.80
70332,485,34.16
70347,483,32.87
70362,477,33.52
70377,486,33.52
70392,489,32.87
70407,500,33.84
70422,500,34.48
70437,496,33.19
70452,501,34.48
70467,502,34.48
70482,502,34.80
70497,496,32.87
70512,489,33.84
70527,494,34.48
70542,498,34.16
70557,493,32.87
70572,487,33.19
70587,490,34.48
70602,487,32.87
70617,482,34.16
70632,488,33.19
70647,491,34.48
70662,487,33.52
70677,491,32.23
70692,501,34.16
70707,516,33.52
70722,542,34.48
70737,551,33.52
70752,573,34.80
70767,582,33.84
70782,587,34.48
70797,585,34.48
70812,577,34.80
70827,564,33.84
70843,558,34.16
70858,538,34.16
70873,523,33.52
70888,525,33.52
70903,504,35.13
70918,500,33.52
70934,492,33.84
70949,490,34.48
70964,475,33.19
70979,476,33.52
70994,472,34.16
71009,485,34.48
71025,490,34.48
71041,495,34.48
71056,493,34.80
71072,494,34.48
71087,500,34.48
71103,499,33.84
71119,498,32.87
71134,501,34.48
71150,492,34.48
71166,489,34.16
71181,492,34.80
71197,491,34.80
71212,482,34.48
71228,485,34.48
71244,490,34.48
71259,494,34.80
71275,490,34.16
71291,490,34.48
71306,506,34.48
71322,513,34.48
71337,532,34.80
71353,553,33.52
71369,568,33.19
71384,579,33.19
71400,585,34.80
71416,585,34.48
71431,576,34.80
71447,571,33.52
71462,560,34.80
71478,546,34.48
71494,527,34.80
71510,513,34.80
71526,501,34.48
71542,491,33.84
71557,491,34.16
71573,481,33.52
71589,478,34.80
71605,478,33.84
71621,490,34.80
71637,491,34.48
71653,490,33.52
71668,497,34.80
71684,500,33.52
71700,502,33.84
71716,497,33.84
71732,498,33.19
71748,497,33.52
71764,496,34.48
71780,493,34.16
71796,491,34.80
71812,486,32.87
71828,487,32.87
71844,489,34.48
71859,491,34.16
71875,492,33.19
71891,488,33.19
71907,496,34.48
71923,494,34.80
71939,515,34.16
71954,530,34.48
71970,549,33.52
71985,562,34.48
72001,578,34.80
72017,578,34.80
72032,574,33.84
72048,578,34.48
72063,561,34.80
72079,556,34.80
72095,542,34.48
72110,532,34.16
72126,520,34.80
72141,510,34.48
72157,502,34.16
72173,495,34.16
72188,492,34.16
72204,487,34.80
72219,485,34.80
72234,488,34.48
72249,491,34.16
72265,488,34.80
72281,499,34.16
72296,500,34.48
72312,499,33.52
72327,496,34.80
72342,495,32.87
72357,495,34.48
72372,497,34.80
72387,497,33.19
72402,498,33.52
72417,495,33.19
72433,487,34.48
72448,491,35.45
72463,489,32.55
72478,487,33.84
72493,489,34.48
72508,492,35.13
72523,491,33.19
72538,505,34.80
72553,521,35.13
72568,530,34.48
72584,553,32.87
72599,566,34.16
72614,571,32.87
72629,580,34.80
72644,577,35.13
72659,576,33.52
72674,567,34.48
72689,556,34.48
72704,545,34.80
72719,534,33.19
72734,515,34.80
72749,506,33.19
72764,501,33.52
72779,484,33.84
72794,487,33.52
72809,483,34.80
72824,485,34.16
72839,484,34.80
72854,492,34.80
72869,495,34.48
72884,495,34.16
72899,498,34.80
72914,502,33.84
72929,497,33.19
72944,498,32.55
72959,499,33.52
72974,493,34.48
72989,496,34.48
73004,498,34.16
73019,493,33.52
73034,495,34.48
73049,493,33.52
73064,493,34.16
73079,491,34.80
73094,488,34.80
73109,485,33.52
73124,495,34.80
73139,501,34.48
73154,512,35.13
73169,519,33.19
73184,538,34.16
73199,561,33.52
73214,566,35.13
73229,580,33.52
73244,585,34.48
73259,580,34.80
73274,576,34.48
73289,560,34.80
73304,549,34.80
73319,542,35.13
73334,525,34.48
73349,518,34.80
73364,503,34.80
73379,500,32.87
73395,492,34.48
73410,490,34.80
73425,481,34.80
73440,486,34.48
73455,489,34.16
73470,486,33.52
73486,496,34.80
73501,492,33.52
73516,501,34.16
73531,493,33.19
73546,500,34.48
73561,495,34.16
73577,497,34.80
73593,497,34.16
73608,492,32.87
73624,493,33.84
73639,490,34.80
73654,492,35.13
73669,484,33.19
73685,491,32.87
73701,488,33.84
73716,485,34.16
73732,495,33.19
73748,496,32.87
73763,508,34.48
73779,529,35.13
73794,540,34.48
73810,559,33.19
73826,575,32.87
73841,583,34.80
73857,584,34.48
73873,577,34.16
73889,573,34.48
73905,562,35.13
73921,547,33.19
73936,538,34.48
73952,526,34.16
73968,508,34.80
73984,504,34.80
74000,496,34.80
74016,485,32.55
74031,489,34.16
74047,486,34.16
74063,481,34.80
74079,486,34.80
74095,484,34.80
74111,496,33.52
74127,497,33.19
74143,492,34.80
74159,500,34.48
74175,494,33.52
74191,503,34.16
74207,503,34.80
74223,491,34.80
74239,497,34.16
74255,494,33.52
74271,493,33.52
74286,491,34.48
74302,490,34.80
74318,492,34.80
74333,492,34.16
74349,500,34.16
74364,513,34.48
74380,528,34.80
74395,540,32.87
74411,551,33.52
74427,574,34.48
74442,582,34.48
74458,581,33.19
74474,579,34.80
74489,573,33.52
74505,557,33.52
74520,543,35.13
74536,536,34.80
74551,523,34.48
74566,512,34.48
74581,503,35.13
74596,491,33.19
74611,486,34.48
74627,475,34.48
74643,481,34.80
74658,482,34.48
74674,489,34.48
74689,487,34.80
74704,501,34.80
74719,496,34.48
74734,494,34.48
74749,502,34.48
74765,493,33.84
74780,502,34.80
74795,498,34.48
74810,498,34.16
74825,494,34.48
74840,487,34.16
74855,489,34.80
74870,494,34.48
74885,483,34.48
74900,489,33.19
74915,483,34.48
74930,490,35.13
74946,494,34.48
74961,502,34.80
74976,507,33.19
74991,525,34.80
75006,538,35.13
75021,561,32.87
75036,575,33.52
75051,573,33.19
75066,580,34.80
75081,579,34.48
75096,568,35.45
75111,555,33.19
75126,547,34.80
75141,529,34.80
75156,525,34.16
75171,515,33.84
75186,500,33.19
75201,496,34.48
75216,490,34.48
75231,484,33.84
75246,485,34.48
75261,484,34.80
75276,480,35.13
75291,494,33.52
75306,496,34.16
75321,499,32.87
75336,501,33.52
75351,506,34.80
75366,503,33.52
75381,503,34.48
75396,502,34.48
75411,497,34.80
75426,496,33.52
75441,496,34.48
75456,492,34.16
75471,488,34.48
75486,491,34.16
75501,490,32.87
75516,487,34.80
75531,481,33.84
75546,484,34.80
75561,497,34.80
75576,501,33.84
75591,520,34.16
75606,539,34.80
75621,560,34.80
75636,572,35.13
75651,581,34.48
75666,577,34.80
75681,577,34.80
75696,576,34.16
75711,568,33.19
75726,554,34.80
75741,544,35.13
75757,533,34.80
75772,519,34.16
75787,506,34.48
75802,492,34.48
75817,487,34.80
75832,481,33.84
75848,483,34.48
75863,484,33.84
75878,477,33.19
75893,490,34.16
75908,493,34.80
75923,496,33.19
75939,498,34.48
75955,503,32.87
75970,500,33.52
75986,502,34.48
76001,497,32.55
76017,500,34.80
76033,497,31.90
76048,494,32.87
76064,485,33.84
76080,489,34.80
76095,490,33.19
76111,484,33.52
76126,489,32.87
76142,481,31.58
76158,492,34.16
76173,490,34.80
76189,510,34.16
76205,526,34.48
76220,546,35.13
76236,555,34.80
76251,567,33.84
76267,573,35.13
76283,582,33.52
76298,574,34.80
76314,573,34.48
76330,555,34.48
76346,551,34.80
76362,540,35.13
76378,521,33.19
76393,506,33.52
76409,504,34.48
76425,494,34.48
76441,483,35.13
76457,484,34.16
76473,479,34.80
76489,485,34.80
76505,490,34.48
76521,491,33.19
76537,492,33.19
76553,497,34.48
76569,504,33.84
76585,493,34.80
76601,499,34.48
76617,494,32.87
76633,496,34.16
76648,488,32.87
76664,494,34.48
76680,479,34.48
76696,491,34.80
76712,484,32.55
76728,480,34.48
76743,483,33.84
76759,485,33.52
76775,481,34.80
76790,495,35.45
76806,509,34.48
76822,528,33.52
76838,546,33.19
76854,560,33.52
76870,579,34.48
76885,586,33.19
76901,581,34.80
76916,574,34.80
76932,564,32.55
76948,558,34.16
76963,544,34.16
76979,529,33.19
76994,509,33.52
77010,506,34.48
77026,496,33.84
77041,491,34.48
77057,477,34.48
77072,484,34.16
77088,482,34.80
77103,481,34.80
77118,488,33.52
77134,494,34.80
77149,497,34.48
77165,497,34.16
77180,493,34.80
77196,499,33.19
77211,497,34.80
77226,490,34.48
77241,496,32.87
77256,491,34.48
77271,491,34.80
77286,486,34.16
77301,492,34.80
77316,492,34.80
77331,485,32.87
77346,491,34.48
77361,485,34.48
77377,490,34.80
77392,490,34.16
77407,489,34.16
77422,502,34.80
77437,523,35.45
77452,541,34.80
77467,553,34.48
77482,571,33.84
77497,573,33.19
77512,581,34.48
77527,579,34.80
77542,570,34.16
77557,558,34.48
77572,553,34.48
77587,541,34.48
77602,528,34.80
77617,514,32.23
77632,505,33.84
77647,493,33.52
77662,486,32.87
77677,483,34.16
77692,484,34.16
77707,485,34.16
77722,488,33.52
77737,495,34.48
77752,498,34.16
77767,498,34.16
77782,500,34.80
77797,500,34.48
77812,495,34.16
77827,491,34.80
77842,498,34.80
77857,493,34.48
77872,498,34.80
77887,493,33.19
77902,497,34.80
77917,493,33.52
77932,491,34.48
77947,486,34.80
77962,485,32.87
77977,482,34.16
77992,489,33.52
78007,495,34.48
78022,507,33.52
78037,520,34.80
78052,540,34.16
78067,547,34.80
78082,567,34.16
78097,573,33.19
78112,579,33.19
78127,572,33.84
78142,567,34.48
78157,561,32.87
78172,555,34.80
78187,542,34.16
78202,536,34.48
78217,525,33.19
78232,516,33.19
78247,510,34.48
78262,500,33.19
78277,494,34.80
78292,487,33.84
78307,485,33.19
78322,490,34.48
78337,492,33.52
78352,493,34.48
78367,495,34.48
78382,499,34.80
78397,499,33.52
78412,496,34.48
78427,502,33.52
78442,500,32.87
78457,504,34.16
78472,504,34.16
78487,504,34.16
78502,492,33.52
78517,495,34.48
78532,488,35.13
78547,487,32.87
78562,488,33.19
78577,487,34.48
78592,485,33.19
78607,495,34.48
78622,502,33.19
78637,518,34.80
78652,539,34.48
78667,551,34.48
78682,571,33.19
78697,573,34.80
78712,576,33.84
78727,579,34.80
78742,577,34.48
78757,563,33.19
78772,546,34.80
78787,546,34.48
78802,530,32.87
78817,516,35.13
78832,504,34.48
78847,495,34.48
78862,486,34.16
78877,473,34.80
78892,477,34.48
78907,480,34.48
78922,482,33.52
78937,490,34.48
78952,495,34.48
78967,502,34.48
78982,494,34.48
78997,500,33.52
79012,496,33.19
79027,495,34.16
79042,494,33.52
79057,491,32.87
79072,485,34.16
79087,487,34.48
79102,486,33.19
79117,484,34.16
79132,481,32.55
79147,479,34.16
79162,472,34.16
79177,477,34.48
79192,481,34.16
79207,480,33.52
79222,490,33.19
79237,507,34.48
79252,521,34.80
79267,544,32.87
79282,554,34.80
79297,572,32.87
79312,574,34.48
79327,576,33.84
79342,574,32.87
79357,566,34.48
79372,556,34.48
79387,547,34.48
79402,529,34.16
79417,515,34.16
79432,507,32.87
79447,500,32.87
79462,491,32.55
79477,487,34.16
79492,475,34.80
79507,473,34.80
79522,486,33.84
79537,484,32.55
79552,490,34.16
79567,495,34.48
79582,494,34.48
79597,498,33.19
79612,500,34.48
79627,501,34.48
79642,496,33.19
79657,499,33.19
79672,498,32.55
79687,496,32.87
79702,500,34.80
79717,494,33.19
79732,496,34.16
79747,491,33.84
79762,490,34.48
79777,483,34.80
79792,491,34.80
79807,491,35.13
79822,505,34.80
79837,515,34.48
79852,529,32.55
79867,544,34.48
79882,559,33.52
79897,567,34.48
79912,573,33.19
79927,573,34.48
79942,570,34.80
79957,557,35.45
79972,553,33.19
79987,532,34.80
80002,530,35.45
80017,520,33.84
80032,502,33.84
80047,502,34.16
80062,495,34.16
80077,483,34.48
80092,484,33.19
80107,486,33.19
80122,483,34.80
80137,491,34.48
80152,487,33.84
80167,497,33.52
80182,494,32.87
80197,495,33.19
80212,495,34.80
80227,501,34.48
80242,501,34.80
80257,501,33.84
80272,500,32.87
80287,493,34.48
80302,497,34.16
80317,488,34.80
80332,493,34.48
80347,492,33.19
80362,489,32.87
80377,488,33.52
80392,488,33.52
80407,492,34.48
80422,501,33.19
80437,516,34.48
80452,528,33.84
80467,544,34.16
80482,557,33.84
80497,570,34.48
80512,575,34.80
80527,574,34.80
80542,573,34.80
80557,561,34.16
80572,558,34.80
80587,548,33.84
80602,537,33.84
80617,522,34.48
80632,516,34.48
80647,506,35.13
80662,498,33.19
80677,491,34.48
80692,486,34.16
80707,478,34.48
80722,484,34.80
80737,485,32.55
80752,491,34.80
80767,484,34.80
80782,492,33.52
80797,500,34.48
80812,493,34.48
80827,503,34.48
80842,501,33.19
80857,505,33.84
80872,498,34.48
80887,505,32.87
80902,493,34.16
80917,493,34.48
80932,482,33.19
80947,486,34.80
80962,482,34.80
80977,479,33.19
80992,482,34.48
81007,477,34.48
81022,483,33.52
81037,499,34.80
81052,502,34.80
81067,523,34.16
81082,533,33.84
81097,553,33.19
81112,560,34.80
81127,560,33.19
81142,568,34.48
81157,559,34.80
81172,552,33.52
81187,542,32.87
81202,531,33.19
81217,515,34.48
81232,511,34.80
81247,502,34.80
81262,488,34.16
81277,479,32.87
81292,483,33.19
81307,481,34.48
81322,480,34.48
81337,478,33.52
81352,486,34.80
81367,484,34.80
81382,482,33.84
81397,491,34.48
81412,491,32.55
81427,494,32.55
81442,498,34.48
81457,500,34.80
81472,498,33.52
81487,494,33.19
81502,499,34.16
81517,499,34.16
81532,489,34.48
81547,492,34.48
81562,486,32.87
81577,490,33.52
81592,488,34.48
81607,491,34.80
81622,483,34.48
81637,494,31.58
81652,501,34.48
81667,514,34.48
81682,522,33.84
81697,539,35.13
81712,558,33.19
81727,562,34.80
81742,574,32.87
81757,572,34.80
81772,566,33.19
81787,567,34.48
81802,550,34.80
81817,542,34.80
81832,532,34.48
81848,518,34.48
81863,501,34.48
81878,496,34.80
81893,480,34.16
81908,483,33.19
81923,479,33.52
81938,483,34.16
81953,478,34.48
81969,484,33.84
81985,491,34.48
82000,489,34.48
82016,498,34.16
82031,494,34.48
82047,502,34.48
82063,493,33.84
82078,499,32.87
82093,490,33.19
82108,496,34.16
82124,496,34.16
82139,492,34.80
82155,491,33.19
82171,485,32.87
82186,493,34.48
82202,483,34.80
82218,490,34.80
82233,490,34.48
82249,494,33.19
82264,499,34.80
82280,510,34.80
82296,534,34.48
82311,550,32.55
82327,568,33.19
82343,580,34.48
82359,586,33.19
82375,584,34.48
82391,576,34.16
82406,568,34.48
82422,549,34.48
82438,540,34.48
82454,534,34.16
82470,516,34.80
82486,512,34.48
82501,500,34.80
82517,487,33.52
82533,488,35.13
82549,477,33.84
82565,478,33.52
82580,478,34.16
82596,486,34.48
82612,490,34.16
82628,491,33.84
82644,491,34.80
82660,490,32.87
82676,491,34.16
82691,490,34.80
82707,496,34.16
82723,498,34.48
82739,495,35.13
82755,492,33.84
82770,494,34.16
82786,483,33.52
82802,487,32.87
82818,490,34.48
82833,490,33.52
82848,484,34.48
82864,493,34.48
82880,503,34.80
82895,518,34.16
82911,531,32.55
82926,549,34.48
82941,555,34.80
82956,578,34.16
82971,584,34.48
82987,587,34.16
83002,579,34.48
83018,570,34.48
83033,555,34.80
83049,542,34.16
83064,539,34.16
83079,524,34.48
83094,514,33.19
83109,503,33.84
83124,500,34.16
83140,485,34.80
83155,489,34.48
83170,481,34.80
83185,481,33.84
83200,487,34.48
83215,491,33.52
83230,494,34.16
83245,494,32.87
83260,492,32.55
83275,490,33.52
83290,494,33.84
83305,499,33.52
83321,495,32.87
83336,501,34.48
83351,500,33.84
83366,500,34.48
83381,493,34.80
83396,488,34.80
83411,491,33.19
83426,485,34.80
83441,490,32.87
83456,494,32.87
83471,493,34.80
83486,496,33.19
83501,498,33.19
83516,509,33.84
83531,519,33.52
83546,539,33.19
83561,552,32.23
83576,571,34.80
83591,576,34.48
83606,589,33.52
83621,578,33.52
83636,580,34.48
83651,563,33.19
83666,559,34.48
83681,539,34.80
83696,534,34.16
83711,524,34.80
83726,514,34.80
83741,507,34.48
83756,501,34.48
83771,497,34.80
83786,492,32.87
83801,491,32.87
83816,486,34.80
83831,487,34.80
83846,495,34.48
83861,495,32.55
83876,500,34.48
83891,498,34.16
83906,499,33.84
83921,499,34.80
83936,509,33.84
83951,508,33.19
83966,502,33.19
83981,493,34.16
83996,497,34.80
84011,493,33.84
84026,489,34.80
84041,494,34.16
84056,489,33.19
84071,495,34.80
84086,491,34.16
84101,495,34.48
84116,501,34.48
84131,501,34.80
84146,513,35.13
84161,526,34.80
84176,541,34.16
84192,559,33.19
84207,576,34.16
84222,583,32.87
84237,577,34.80
84252,581,33.84
84267,575,33.52
84283,562,33.19
84298,541,34.80
84313,541,34.16
84328,528,34.48
84343,511,34.48
84358,507,34.80
84373,497,32.87
84388,488,34.80
84404,492,34.80
84419,488,33.19
84434,488,32.87
84449,488,34.80
84464,493,33.19
84479,498,34.16
84495,502,33.52
84511,503,34.16
84526,504,34.80
84542,506,33.84
84557,501,34.16
84573,498,34.80
84589,504,32.55
84604,501,34.80
84620,497,32.87
84636,501,34.80
84651,501,34.48
84667,497,33.84
84682,493,33.19
84698,494,32.55
84714,487,33.52
84729,488,34.80
84745,488,33.84
84761,504,34.16
84776,514,34.80
84792,528,34.80
84807,550,34.48
84823,566,34.48
84839,582,34.48
84854,587,34.80
84870,584,34.80
84886,578,34.80
84902,561,35.13
84918,554,34.48
84934,544,34.80
84949,525,34.80
84965,521,34.48
84981,505,34.48
84997,501,34.48
85013,495,34.80
85029,492,33.52
85045,485,32.87
85061,481,34.80
85076,487,34.16
85092,495,34.48
85108,495,33.19
85124,497,32.87
85140,503,34.16
85156,499,34.80
85172,506,34.16
85187,501,33.19
85203,505,34.48
85218,498,33.84
85234,500,32.55
85250,494,34.48
85266,494,34.16
85282,494,35.13
85298,492,34.80
85313,492,34.80
85329,483,34.48
85345,492,33.84
85360,491,34.80
85376,496,33.19
85391,505,34.16
85407,521,34.16
85423,539,33.19
85438,559,32.87
85454,574,33.19
85469,580,34.80
85484,584,34.48
85499,586,34.80
85515,570,34.16
85531,563,34.48
85546,542,34.80
85561,537,34.16
85576,522,34.80
85592,511,33.52
85607,502,33.19
85622,498,34.80
85637,494,34.48
85652,482,33.19
85667,486,33.19
85683,482,33.52
85698,483,33.19
85713,492,34.48
85728,493,34.48
85743,497,34.80
85758,489,35.13
85773,501,34.48
85788,503,34.48
85803,499,33.52
85818,503,33.19
85833,496,32.87
85848,500,34.80
85863,501,34.48
85878,491,33.19
85893,493,32.87
85908,497,33.84
85923,495,33.84
85938,488,33.84
85953,494,34.48
85968,496,34.48
85983,490,33.19
85998,494,34.80
86013,495,34.48
86028,505,33.19
86043,523,33.52
86058,541,32.55
86073,556,32.87
86088,573,34.16
86103,573,34.48
86118,581,34.48
86133,568,33.19
86148,558,34.80
86163,556,34.80
86178,540,34.16
86193,526,34.80
86208,515,33.19
86223,514,34.16
86238,506,34.16
86253,503,34.48
86268,496,34.16
86283,488,34.16
86298,491,33.19
86313,488,34.16
86328,489,33.52
86343,486,32.87
86358,486,34.80
86373,497,34.16
86388,502,34.16
86403,506,34.48
86418,506,34.48
86433,506,34.16
86448,504,34.80
86463,502,32.55
86478,500,34.16
86493,500,34.16
86508,500,33.84
86523,492,34.48
86538,495,34.80
86553,492,34.48
86568,486,34.48
86583,484,34.48
86598,494,34.80
86613,493,33.19
86628,496,34.48
86643,494,34.16
86658,510,33.19
86673,523,32.87
86688,533,33.84
86703,551,33.52
86718,560,34.48
86733,570,34.48
86748,568,33.52
86763,558,33.84
86778,558,34.80
86793,541,34.48
86808,534,32.87
86823,529,33.52
86839,520,34.48
86854,512,34.16
86869,499,34.48
86884,496,33.52
86899,488,33.52
86914,490,34.48
86929,489,33.52
86944,489,33.19
86960,490,34.48
86975,494,33.19
86990,499,34.48
87005,494,34.80
87020,509,34.16
87035,503,34.16
87050,500,32.87
87065,501,33.52
87081,497,34.48
87097,494,34.48
87112,497,32.55
87128,490,33.19
87143,487,34.48
87159,495,34.16
87175,496,34.48
87190,492,34.48
87206,493,33.84
87222,494,34.16
87237,486,34.80
87253,493,33.19
87268,502,34.48
87284,514,34.48
87300,531,33.19
87315,545,32.55
87331,561,34.80
87347,562,34.80
87362,572,35.13
87378,572,34.80
87393,561,33.19
87409,551,34.80
87425,539,32.55
87441,526,34.48
87457,525,34.48
87473,508,34.80
87488,505,32.87
87504,500,34.48
87520,499,34.16
87536,492,33.19
87552,484,33.19
87568,487,34.48
87583,487,34.80
87599,496,32.87
87614,497,34.48
87630,497,32.87
87646,498,33.19
87661,498,34.48
87677,500,32.87
87693,499,33.52
87709,500,32.87
87725,495,32.87
87740,493,33.19
87756,499,34.48
87772,496,33.19
87788,497,34.48
87803,497,33.19
87819,498,32.55
87834,495,33.19
87849,489,34.48
87864,489,34.48
87880,494,34.16
87895,502,32.87
87911,509,34.80
87927,523,35.13
87942,534,33.19
87958,554,34.80
87974,564,33.19
87989,568,34.80
88005,571,34.48
88020,564,32.55
88035,560,34.48
88050,550,34.48
88066,538,33.19
88081,529,32.87
88096,520,34.48
88111,513,34.48
88126,505,34.16
88141,492,34.48
88157,495,34.80
88172,490,34.48
88187,488,34.48
88202,490,34.16
88217,487,32.87
88232,494,34.48
88247,497,34.48
88262,501,34.48
88278,501,34.16
88293,501,33.84
88308,499,34.48
88323,497,33.52
88338,501,34.48
88353,498,34.16
88368,503,35.13
88383,499,34.48
88398,495,32.87
88413,497,33.52
88428,489,33.84
88443,487,32.55
88458,493,34.80
88473,491,33.52
88488,495,34.16
88503,492,34.48
88518,494,33.84
88533,494,34.16
88548,506,34.16
88563,516,34.48
88578,526,33.19
88593,536,33.19
88608,550,34.16
88623,565,34.80
88638,573,34.48
88653,573,34.16
88668,566,34.80
88683,557,34.48
88698,542,34.80
88713,541,34.48
88728,531,34.16
88743,523,34.48
88758,507,34.80
88773,502,34.48
88788,499,32.87
88803,489,34.16
88818,486,34.16
88833,489,34.16
88848,489,34.48
88863,491,34.48
88878,486,34.80
88893,493,32.87
88908,493,32.55
88923,491,34.48
88938,503,34.80
88953,499,33.19
88968,503,34.16
88983,501,34.80
88998,501,34.16
89013,500,34.80
89028,498,34.80
89043,494,33.19
89058,494,32.87
89073,497,34.16
89088,495,34.48
89103,494,34.80
89118,495,34.48
89133,485,32.87
89148,490,33.19
89163,486,34.80
89178,495,34.80
89193,498,34.80
89208,501,34.48
89223,521,33.84
89238,531,34.48
89253,547,34.48
89268,553,34.48
89283,570,34.80
89298,572,34.16
89313,567,34.48
89328,560,34.80
89343,549,34.48
89358,531,34.80
89373,522,34.48
89388,522,34.48
89403,514,34.48
89418,504,35.13
89433,498,34.48
89448,493,32.55
89463,484,32.87
89478,490,33.19
89493,489,34.80
89508,492,34.16
89523,489,33.84
89538,495,32.55
89553,503,34.80
89568,504,33.84
89583,502,34.80
89598,498,33.84
89613,503,33.19
89628,504,33.52
89643,501,34.80
89658,500,34.48
89673,492,33.84
89688,496,33.84
89703,491,34.80
89718,495,35.13
89733,486,33.52
89748,492,33.52
89763,491,33.19
89778,490,34.80
89793,488,32.87
89808,491,34.16
89823,492,33.19
89838,494,34.80
89854,516,34.48
89870,530,33.52
89886,547,34.48
89901,554,34.80
89916,561,34.48
89931,572,34.80
89947,565,33.19
89962,563,33.52
89977,548,35.13
89992,545,34.80
90007,534,34.48
90023,526,34.48
90038,516,34.48
90054,512,34.48
90069,501,34.48
90085,494,32.55
90101,492,34.16
90116,492,34.16
90132,490,33.19
90148,493,34.48
90163,488,33.52
90178,490,34.80
90194,491,34.80
90209,501,34.16
90225,503,34.80
90241,500,34.48
90256,498,33.52
90272,497,34.80
90288,503,34.48
90303,496,33.52
90319,492,33.52
90334,497,34.80
90350,489,34.80
90366,493,34.80
90381,497,34.80
90397,486,33.52
90412,492,34.48
90428,485,33.52
90444,484,34.80
90459,491,34.80
90475,493,35.13
90491,493,33.84
90506,514,34.48
90522,522,34.80
90537,543,33.19
90553,557,33.19
90568,568,34.48
90583,567,34.16
90599,574,34.48
90614,568,34.16
90629,561,35.13
90644,541,34.80
90659,533,33.84
90674,529,32.87
90690,520,34.80
90705,510,34.48
90721,501,34.16
90736,502,32.87
90752,498,34.48
90768,495,34.16
90783,490,34.48
90799,491,34.80
90814,496,34.80
90829,496,34.48
90844,503,34.48
90859,497,34.16
90874,505,32.55
90890,508,32.55
90905,507,34.48
90920,509,34.80
90935,506,34.48
90950,498,34.16
90965,500,33.84
90980,494,34.80
90995,495,34.80
91010,494,33.84
91025,487,34.80
91040,489,33.19
91055,485,34.48
91071,491,34.48
91086,490,34.80
91101,492,34.80
91116,487,33.19
91131,488,34.80
91146,497,33.52
91161,500,33.19
91176,517,34.80
91191,534,34.16
91206,547,34.80
91221,555,32.23
91236,564,35.13
91251,570,34.48
91266,567,34.48
91281,564,34.80
91296,556,34.48
91311,539,34.80
91326,535,34.48
91341,519,33.84
91356,516,32.87
91371,510,34.48
91386,500,34.80
91401,493,34.80
91416,489,32.87
91431,489,34.16
91446,488,34.80
91461,488,33.84
91476,491,33.19
91491,494,34.48
91506,495,32.87
91521,490,33.84
91536,505,32.55
91551,506,34.48
91566,507,34.48
91581,502,34.80
91596,495,34.80
91611,500,33.84
91626,497,34.48
91641,495,34.16
91656,495,34.80
91671,494,33.84
91686,492,33.19
91701,485,34.80
91716,492,33.19
91731,494,34.80
91746,486,34.80
91761,491,34.80
91776,489,33.52
91791,489,33.19
91806,498,34.16
91821,511,33.84
91836,522,32.87
91851,533,33.84
91866,556,34.16
91881,563,34.48
91896,566,34.80
91911,568,34.80
91926,563,33.52
91941,556,34.48
91956,546,34.80
91971,530,33.52
91986,522,33.84
92001,520,34.16
92016,510,33.84
92031,502,34.16
92046,492,34.16
92061,482,34.48
92076,486,32.87
92091,488,33.19
92106,486,34.48
92121,495,34.48
92136,495,32.55
92151,498,34.80
92166,497,34.80
92181,506,34.80
92196,508,33.52
92211,501,33.19
92226,506,34.48
92241,508,34.48
92256,499,34.80
92271,501,33.52
92286,496,33.52
92301,503,34.16
92316,500,34.16
92331,497,34.48
92346,494,33.52
92361,488,34.80
92376,493,33.19
92391,491,34.16
92406,485,34.48
92421,491,33.52
92436,493,35.13
92451,491,34.48
92466,509,33.52
92481,521,34.48
92496,538,34.16
92511,551,34.48
92526,564,33.52
92541,570,34.80
92556,567,34.80
92571,571,33.84
92586,568,33.84
92601,556,34.48
92616,541,34.48
92631,531,32.87
92646,528,34.80
92661,510,34.16
92676,510,33.84
92691,504,34.16
92706,493,34.48
92721,488,33.19
92736,494,34.48
92751,492,34.48
92766,492,34.80
92781,496,34.80
92796,494,34.48
92811,502,34.80
92826,502,32.87
92841,504,34.48
92856,498,33.19
92871,500,33.84
92886,505,32.87
92901,501,34.48
92916,501,34.48
92931,497,32.87
92946,494,33.52
92961,493,34.16
92976,492,34.80
92991,485,34.16
93006,483,33.84
93021,490,33.52
93036,491,34.48
93051,493,33.19
93066,495,34.48
93081,494,33.84
93096,492,34.80
93111,501,34.16
93126,513,34.80
93141,524,34.80
93156,539,34.48
93171,561,33.19
93186,571,34.80
93201,575,34.16
93216,572,33.19
93231,562,34.48
93246,558,34.80
93261,544,34.80
93276,542,34.48
93291,533,34.80
93306,524,34.80
93321,512,34.80
93336,505,32.87
93351,501,33.19
93366,491,34.80
93381,491,34.16
93396,485,34.16
93411,489,34.48
93426,485,32.87
93441,491,34.48
93456,493,33.19
93471,492,34.48
93486,500,34.16
93501,504,34.48
93516,503,32.87
93531,503,34.80
93546,498,35.13
93561,496,34.80
93576,499,34.48
93591,491,34.48
93606,493,33.19
93621,495,33.52
93636,488,34.80
93651,493,34.16
93666,487,34.16
93681,490,34.48
93696,492,34.48
93711,492,34.16
93726,493,34.80
93741,493,34.48
93756,494,34.48
93771,507,34.48
93786,519,34.16
93801,530,34.80
93816,552,34.48
93831,560,33.52
93846,568,32.87
93861,572,34.16
93876,561,34.80
93891,563,34.80
93906,550,34.48
93921,547,33.19
93936,539,34.48
93951,528,34.16
93966,519,34.48
93981,506,33.52
93996,502,34.48
94011,493,33.19
94026,486,33.19
94041,485,34.48
94056,487,34.80
94071,493,32.87
94086,489,33.84
94101,499,33.19
94116,499,33.52
94131,503,33.19
94146,509,34.80
94161,496,34.48
94176,505,32.87
94191,507,34.48
94206,505,34.48
94221,503,34.16
94236,496,34.80
94251,495,34.16
94266,497,33.19
94281,496,34.16
94296,494,34.48
94311,492,34.48
94326,495,33.84
94341,488,32.87
94356,490,34.80
94371,495,33.84
94386,501,34.16
94401,505,34.48
94416,510,33.19
94431,528,32.87
94446,543,34.80
94461,558,34.48
94476,567,34.80
94491,567,34.80
94506,566,34.80
94521,563,34.80
94536,557,34.16
94551,550,34.48
94566,535,33.19
94581,526,34.48
94596,512,33.19
94611,507,33.52
94626,495,33.52
94641,496,34.80
94656,495,34.16
94671,485,33.84
94686,493,34.48
94701,495,34.16
94716,497,34.48
94731,495,34.80
94746,502,34.48
94761,498,34.80
94776,508,35.13
94791,509,32.87
94806,508,32.55
94821,508,34.80
94836,507,34.16
94851,503,34.16
94866,496,33.19
94881,500,34.80
94896,502,34.48
94911,497,34.80
94926,499,34.48
94941,494,34.16
94956,500,34.16
94971,499,34.16
94986,498,34.80
95001,499,34.16
95016,502,33.84
95031,502,34.16
95046,509,33.52
95061,527,33.19
95076,544,34.48
95091,554,34.80
95106,571,34.48
95121,577,34.48
95136,579,34.80
95151,570,34.80
95166,564,34.80
95181,560,33.84
95196,547,33.84
95211,534,33.19
95226,529,34.48
95241,517,34.16
95256,503,33.52
95271,504,34.16
95286,501,34.16
95301,497,34.48
95316,494,34.16
95331,496,33.52
95346,487,34.48
95361,497,34.16
95376,493,34.48
95391,495,33.84
95406,502,32.55
95421,506,32.55
95436,507,33.52
95451,512,34.48
95466,503,33.84
95481,503,34.80
95496,508,34.48
95511,503,33.52
95526,494,33.84
95541,498,34.16
95556,498,33.52
95571,497,34.80
95586,498,34.48
95601,495,33.84
95616,491,34.48
95631,494,33.19
95646,489,33.52
95661,488,33.52
95676,498,34.80
95691,514,34.48
95706,531,32.87
95721,549,32.87
95736,559,34.80
95751,563,34.48
95766,573,34.48
95781,572,34.80
95796,567,32.87
95811,562,35.13
95826,550,34.80
95841,533,33.52
95856,526,32.87
95871,522,34.80
95886,505,35.13
95901,508,34.48
95916,504,34.48
95931,490,34.48
95946,491,34.16
95961,483,34.80
95976,489,33.19
95991,492,32.87
96006,489,34.80
96021,500,34.80
96036,501,34.16
96051,504,32.87
96066,499,34.16
96081,501,34.48
96096,505,34.16
96111,505,34.48
96126,502,34.48
96141,502,34.48
96156,498,34.48
96171,495,34.48
96186,496,35.13
96201,497,33.52
96216,497,33.19
96231,495,33.52
96246,486,34.48
96261,486,32.87
96276,487,34.48
96291,494,33.52
96306,495,34.16
96321,504,33.52
96336,515,34.16
96351,530,32.87
96366,544,34.48
96381,556,34.48
96396,566,34.48
96411,571,34.16
96426,564,32.87
96441,561,34.48
96456,557,33.84
96471,553,34.16
96486,531,34.80
96501,524,35.13
96516,515,34.48
96531,505,33.19
96546,506,33.84
96561,496,34.48
96576,492,34.80
96591,490,33.52
96606,484,34.16
96621,489,34.80
96636,501,34.80
96651,501,34.16
96666,505,34.48
96681,503,34.48
96696,506,32.87
96711,503,34.80
96726,506,34.80
96741,502,34.80
96756,504,34.48
96771,497,34.80
96786,501,33.52
96801,502,32.87
96816,495,34.80
96831,500,34.48
96846,489,34.16
96861,492,33.84
96876,487,34.80
96891,487,34.16
96906,491,34.80
96921,491,33.19
96936,500,34.80
96951,504,33.52
96966,521,34.80
96981,534,34.48
96996,550,33.19
97011,554,34.48
97026,567,35.13
97041,566,33.19
97056,569,34.80
97071,560,34.48
97086,552,33.19
97101,544,34.80
97116,526,32.87
97131,523,34.80
97146,510,32.87
97161,502,35.45
97176,493,34.48
97191,497,32.87
97206,491,34.48
97221,492,35.13
97236,489,34.80
97251,496,34.80
97266,492,34.48
97281,501,34.80
97296,500,33.52
97311,505,34.80
97326,506,32.87
97341,506,34.16
97356,506,34.80
97371,507,33.52
97386,498,34.16
97401,499,34.80
97416,498,33.19
97431,491,34.80
97446,496,34.80
97461,494,34.48
97476,494,34.48
97491,493,32.87
97506,494,33.84
97521,495,34.48
97536,494,32.87
97551,492,32.87
97566,504,34.16
97581,510,32.55
97596,524,34.80
97611,542,34.48
97626,548,34.48
97641,568,34.48
97656,575,34.48
97671,567,34.80
97686,569,33.19
97701,564,33.52
97716,546,34.80
97731,541,34.16
97746,532,33.19
97761,523,34.48
97776,506,33.52
97791,506,32.87
97806,497,34.48
97821,498,33.19
97836,489,33.19
97851,494,34.48
97866,492,34.48
97881,490,34.48
97896,494,33.52
97911,497,34.80
97926,493,34.48
97941,495,34.80
97956,497,34.16
97971,505,34.16
97986,503,32.87
98001,504,34.48
98016,496,34.80
98031,493,34.48
98046,492,33.84
98061,495,34.16
98076,489,34.48
98091,489,33.19
98106,493,34.80
98121,494,34.48
98136,492,34.48
98151,494,34.16
98166,494,33.19
98181,498,34.48
98196,508,33.52
98211,518,34.48
98226,526,34.80
98241,548,34.16
98256,554,34.80
98271,569,33.19
98286,564,34.80
98301,570,32.87
98316,564,34.80
98331,549,33.52
98346,544,32.87
98361,535,33.19
98376,525,34.80
98391,512,32.87
98406,506,35.13
98421,506,33.52
98436,500,34.80
98451,496,34.80
98466,486,34.80
98481,492,34.48
98496,492,32.87
98511,495,34.16
98526,489,34.48
98541,494,33.84
98556,502,32.87
98571,507,33.19
98586,506,34.48
98601,506,33.19
98616,497,34.48
98631,502,32.87
98646,495,34.80
98661,496,34.48
98676,494,34.48
98691,493,34.16
98706,493,33.19
98721,494,34.80
98736,495,34.48
98751,493,35.13
98766,495,33.19
98781,489,34.80
98796,497,33.52
98811,498,34.48
98826,514,34.16
98841,526,34.48
98856,543,34.16
98871,551,34.80
98886,559,34.80
98901,570,34.16
98916,568,32.55
98931,566,34.48
98946,555,34.48
98961,540,34.80
98976,535,32.55
98991,530,34.48
99006,522,34.80
99021,514,34.48
99036,507,34.16
99051,498,34.48
99066,495,33.84
99081,487,33.52
99096,487,34.16
99111,492,34.48
99126,491,33.19
99141,500,34.16
99156,501,33.52
99171,509,34.16
99186,503,35.13
99201,507,33.19
99216,509,34.16
99231,500,34.48
99246,504,34.16
99261,494,34.80
99276,501,34.48
99291,490,33.19
99306,491,33.52
99321,494,34.48
99336,489,33.84
99351,495,34.48
99366,494,33.52
99381,495,34.16
99396,496,34.80
99411,491,34.80
99426,497,33.19
99441,521,33.52
99456,531,32.87
99471,542,34.16
99486,556,34.80
99501,566,34.48
99516,566,34.80
99531,563,32.87
99546,554,33.84
99561,552,33.19
99576,539,34.80
99591,530,33.19
99606,527,34.80
99621,522,34.48
99636,510,34.80
99651,497,34.80
99666,494,34.80
99681,494,34.48
99696,493,34.16
99711,490,34.48
99726,485,32.87
99741,491,34.80
99756,498,34.48
99771,500,34.80
99786,505,34.48
99801,502,34.80
99816,507,33.52
99831,506,34.16
99846,504,33.84
99861,501,34.48
99876,504,34.48
99891,494,33.52
99906,503,34.48
99921,498,32.87
99936,499,33.19
99951,497,34.80
99966,493,32.87
99981,494,33.19
99996,488,33.84
100011,495,32.87
100026,495,34.80
100041,512,33.19
100056,521,34.80
100071,542,34.80
100086,556,34.48
100101,568,33.19
100116,569,34.48
100131,567,33.52
100146,570,34.48
100161,556,34.48
100176,553,34.80
100191,546,35.13
100206,537,33.52
100221,529,34.16
100236,524,34.48
100251,508,34.80
100266,503,34.80
100281,502,34.48
100296,499,34.48
100311,484,34.48
100326,492,34.48
100341,493,34.16
100356,489,35.13
100371,491,34.48
100386,497,34.48
100401,495,34.80
100416,502,32.87
100431,504,34.48
100446,503,32.87
100461,504,34.48
100476,500,34.16
100491,502,34.80
100506,500,34.48
100521,496,34.48
100536,499,33.19
100551,497,34.48
100566,493,32.87
100581,493,34.48
100597,493,34.80
100612,494,33.84
100628,496,34.48
100643,498,34.80
100658,503,34.16
100673,517,33.84
100689,536,34.80
100705,555,34.80
100720,565,33.84
100736,571,33.19
100751,566,32.87
100766,566,34.80
100781,561,34.80
100796,556,33.19
100811,545,32.87
100827,536,34.48
100843,528,34.16
100858,516,35.13
100874,509,34.48
100889,504,34.48
100905,495,33.84
100921,492,35.13
100936,489,33.52
100952,490,34.48
100968,493,34.48
100983,494,34.48
100999,492,33.52
101014,490,32.87
101030,500,33.84
101046,502,33.19
101061,494,33.52
101077,499,34.48
101093,499,33.52
101108,492,34.16
101124,490,33.19
101139,498,33.19
101155,496,34.80
101171,496,34.48
101186,494,34.80
101202,492,32.87
101218,487,32.87
101234,491,33.19
101250,483,34.48
101266,498,34.80
101281,493,34.48
101297,513,34.48
101313,525,34.48
101329,534,34.48
101345,557,34.80
101361,566,34.48
101377,564,34.80
101393,571,35.13
101409,557,34.80
101425,554,32.87
101441,548,34.48
101457,528,34.48
101473,526,34.48
101489,512,34.16
101505,507,33.19
101521,496,34.80
101536,496,34.48
101552,489,34.48
101568,489,34.16
101583,488,34.80
101599,490,32.87
101614,487,34.80
101630,498,34.48
101646,495,33.84
101661,502,33.52
101677,499,34.48
101692,499,34.48
101708,502,34.48
101724,499,33.19
101739,494,34.16
101755,497,34.48
101770,497,34.48
101786,495,33.19
101802,488,34.80
101817,487,34.16
101833,484,34.48
101849,493,34.48
101864,488,34.80
101880,494,32.87
101895,493,34.48
101911,506,34.16
101926,516,34.80
101941,535,33.52
101956,550,34.80
101971,564,34.16
101986,569,34.48
102002,565,34.80
102018,567,33.52
102033,566,34.16
102049,549,34.80
102064,546,34.80
102079,536,32.87
102094,527,34.48
102109,514,34.48
102124,503,34.80
102140,501,32.55
102155,495,34.48
102170,485,34.80
102185,489,34.80
102200,481,33.84
102215,485,34.16
102230,484,34.48
102245,488,34.48
102260,489,34.48
102275,500,32.55
102290,497,34.80
102305,506,34.48
102320,503,34.80
102335,504,34.80
102350,501,34.80
102365,499,34.48
102380,497,33.19
102395,498,33.52
102410,494,34.48
102425,491,34.16
102440,486,34.48
102455,494,34.48
102470,493,34.16
102485,490,34.48
102500,493,34.48
102515,495,34.48
102530,496,32.23
102545,507,32.87
102560,525,34.80
102575,536,34.16
102590,554,34.80
102605,565,34.16
102620,571,34.80
102635,567,34.80
102650,573,33.19
102665,569,34.80
102680,563,34.80
102695,546,33.84
102710,539,32.87
102725,528,34.80
102740,524,33.19
102755,509,34.80
102770,512,34.48
102785,502,34.48
102800,494,33.84
102815,485,34.48
102830,487,34.48
102845,489,34.80
102860,491,33.19
102875,486,33.19
102890,496,34.48
102905,500,34.80
102920,500,34.48
102935,501,34.48
102950,500,33.52
102965,501,34.48
102980,497,32.87
102995,500,34.48
103011,495,34.48
103026,498,34.48
103041,489,33.84
103056,487,34.48
103071,489,34.80
103086,487,34.48
103102,485,34.80
103117,490,33.19
103132,491,34.80
103147,486,34.80
103162,488,34.80
103177,500,32.87
103192,514,34.48
103207,528,33.19
103223,546,32.55
103238,562,33.19
103253,572,33.19
103268,576,33.19
103283,574,33.84
103298,575,34.80
103314,561,33.19
103330,547,34.80
103345,547,33.19
103361,531,34.80
103376,525,34.48
103392,518,34.48
103408,505,33.19
103423,502,34.16
103439,493,34.48
103455,489,34.48
103470,490,33.84
103486,482,34.48
103501,493,34.80
103517,495,33.52
103533,490,34.48
103548,500,34.16
103564,496,34.48
103580,501,34.48
103595,495,34.16
103611,503,34.48
103626,496,33.52
103642,491,34.48
103658,495,34.80
103673,498,33.52
103689,495,34.16
103705,491,34.48
103721,487,34.16
103737,496,34.48
103753,496,33.84
103769,490,34.80
103785,489,33.19
103801,495,34.48
103817,497,34.48
103833,502,34.48
103849,515,32.55
103865,530,32.87
103881,547,33.84
103897,563,34.16
103913,570,32.87
103928,572,34.48
103944,565,34.80
103960,564,34.16
103976,558,33.84
103992,549,34.80
104008,533,33.84
104023,528,34.16
104039,523,34.80
104054,511,32.87
104070,499,34.80
104086,499,34.80
104101,491,34.80
104117,490,33.19
104132,483,34.16
104148,494,34.48
104164,491,34.80
104179,492,34.48
104195,503,34.48
104211,506,34.48
104226,501,32.87
104242,506,34.16
104257,505,34.16
104273,503,34.48
104288,503,34.80
104303,495,34.48
104319,500,34.16
104334,488,34.48
104350,491,34.48
104365,495,34.48
104381,495,34.48
104396,487,34.16
104411,494,32.87
104426,483,33.19
104441,486,33.19
104456,495,33.19
104471,502,34.80
104486,506,34.80
104502,526,33.19
104518,542,33.84
104533,554,33.19
104549,563,32.55
104564,566,34.80
104579,569,34.80
104594,565,34.80
104609,557,33.84
104624,550,35.13
104640,539,34.48
104655,528,34.16
104670,525,34.48
104685,512,34.48
104700,505,32.87
104715,500,33.84
104730,497,34.48
104745,491,34.48
104760,491,34.48
104775,490,34.48
104790,490,32.87
104805,495,33.52
104820,501,33.19
104835,497,34.80
104850,496,34.48
104865,506,34.48
104880,499,33.84
104895,500,34.48
104910,496,32.87
104925,497,34.48
104940,497,35.13
104955,495,32.87
104970,490,34.48
104985,494,33.19
105000,499,34.16
105015,490,34.80
105030,496,34.16
105045,488,32.87
105060,491,33.52
105075,496,34.48
105090,489,34.80
105105,490,34.48
105120,503,32.87
105135,514,33.19
105150,531,34.16
105165,545,33.52
105180,559,32.87
105195,568,34.48
105210,573,34.80
105225,566,34.16
105240,569,34.48
105255,560,32.87
105270,553,32.87
105285,550,34.48
105300,537,33.52
105315,525,33.52
105330,516,33.52
105345,524,34.80
105360,504,31.90
105375,497,34.48
105390,489,34.48
105405,490,33.19
105420,496,34.48
105435,493,34.48
105451,491,34.80
105466,502,34.48
105481,500,33.19
105496,496,33.19
105511,501,32.87
105526,501,34.48
105542,504,33.52
105557,503,34.80
105572,503,34.48
105587,493,34.80
105602,499,32.87
105617,499,34.16
105633,493,32.87
105649,495,34.48
105664,487,33.84
105680,493,34.80
105695,485,33.52
105711,488,34.16
105727,488,34.16
105742,489,34.48
105758,494,34.16
105774,494,33.19
105789,512,34.48
105805,520,34.48
105820,542,32.87
105836,562,34.48
105852,567,34.80
105867,572,33.19
105883,567,34.16
105899,566,35.13
105914,558,35.13
105930,557,33.52
105945,547,33.19
105961,535,34.48
105977,531,33.19
105992,512,34.16
106007,505,34.48
106022,498,34.48
106038,499,33.52
106054,494,32.87
106070,493,34.48
106086,494,34.48
106102,495,33.84
106118,491,34.80
106134,502,35.45
106150,505,34.80
106166,498,33.52
106182,499,33.52
106198,503,33.19
106214,502,34.48
106230,501,34.48
106246,497,33.19
106262,496,34.48
106278,495,34.48
106294,494,35.13
106310,493,34.16
106326,489,33.19
106342,492,33.52
106358,488,32.55
106374,490,33.84
106390,491,34.80
106406,490,32.87
106422,487,34.80
106437,492,34.48
106453,512,32.87
106469,530,34.80
106484,544,33.19
106500,550,34.80
106516,568,34.48
106532,570,34.48
106548,564,33.19
106564,560,34.48
106579,552,34.16
106595,542,34.80
106610,533,34.48
106626,520,34.48
106642,516,33.19
106657,509,35.13
106673,501,33.19
106688,492,33.52
106704,492,33.84
106720,491,33.84
106735,492,34.80
106751,489,34.48
106766,490,34.80
106782,501,33.52
106798,501,34.48
106813,502,34.48
106829,503,33.84
106844,504,35.13
106859,496,34.48
106874,500,32.87
106890,497,34.16
106906,497,34.48
106921,495,33.52
106937,497,34.16
106952,497,34.80
106967,497,34.48
106982,496,34.80
106997,497,35.13
107012,494,33.19
107028,493,33.84
107043,494,33.19
107058,494,34.16
107073,495,34.80
107088,509,32.87
107103,517,34.48
107118,535,34.80
107133,548,32.87
107148,563,34.48
107163,566,33.19
107178,569,34.48
107193,567,34.80
107208,560,34.80
107223,554,34.16
107238,540,34.80
107253,538,34.48
107268,528,32.87
107283,520,33.84
107298,513,33.52
107313,505,34.16
107328,499,34.16
107343,495,34.16
107358,492,34.80
107373,493,34.48
107388,491,34.80
107403,496,34.80
107418,500,34.48
107433,495,34.48
107448,503,33.19
107463,505,34.80
107478,505,34.16
107493,506,34.16
107508,500,34.48
107523,494,33.52
107538,493,34.16
107553,500,33.19
107568,490,34.48
107583,492,34.80
107598,493,32.87
107613,489,34.48
107628,495,32.87
107643,488,34.48
107658,493,34.80
107673,493,33.84
107688,486,35.13
107703,492,33.19
107718,502,34.16
107733,502,33.19
107748,522,34.48
107763,535,34.48
107778,546,34.48
107793,556,34.80
107808,568,33.84
107823,575,34.48
107838,571,32.87
107853,570,34.80
107868,563,32.87
107883,551,32.87
107898,545,34.48
107913,530,35.13
107928,528,34.80
107943,514,34.80
107958,504,33.52
107973,504,34.16
107988,499,32.55
108003,496,34.16
108018,493,34.48
108033,486,35.13
108048,493,34.80
108063,487,34.48
108078,496,34.16
108093,495,34.16
108108,498,33.19
108123,504,34.48
108138,504,34.48
108153,504,33.19
108168,497,34.80
108183,502,34.80
108198,501,34.80
108213,500,34.48
108228,497,33.19
108243,491,33.52
108258,493,34.48
108273,491,34.48
108288,491,34.16
108303,489,32.87
108318,492,33.84
108333,490,33.19
108348,494,34.16
108363,492,33.52
108378,494,34.48
108393,503,35.13
108408,517,33.19
108423,530,35.13
108438,540,34.80
108453,563,34.80
108468,568,34.80
108483,569,33.52
108498,573,33.52
108513,570,34.48
108528,562,34.80
108543,554,33.52
108558,545,34.16
108573,536,34.48
108588,526,33.19
108603,513,34.48
108618,507,33.84
108633,507,34.48
108648,500,34.16
108663,495,34.16
108678,491,34.80
108693,490,34.80
108708,484,34.48
108723,491,34.48
108738,496,34.48
108753,495,32.87
108768,495,34.48
108783,500,32.55
108798,501,32.87
108813,502,33.19
108828,500,34.80
108843,502,34.48
108858,498,34.48
108873,497,33.52
108888,490,34.48
108903,487,34.16
108918,490,34.80
108933,497,33.19
108948,498,33.84
108963,498,34.48
108978,487,33.84
108993,494,33.19
109008,487,34.80
109023,483,35.45
109038,498,34.80
109053,507,34.80
109068,515,33.52
109083,528,33.52
109098,548,34.48
109113,560,33.19
109128,566,33.19
109143,570,34.80
109158,568,31.90
109173,564,33.52
109188,552,34.80
109203,545,34.80
109218,536,33.19
109233,533,34.48
109248,520,32.87
109263,513,32.87
109278,496,34.48
109293,494,32.87
109308,488,34.48
109323,490,34.48
109338,486,33.84
109353,489,34.16
109368,487,34.16
109383,500,35.45
109398,494,34.48
109413,504,33.19
109428,507,34.48
109443,498,33.19
109458,502,32.87
109473,503,33.19
109488,500,32.87
109503,495,33.52
109518,500,32.87
109533,495,33.19
109548,497,34.80
109563,494,34.80
109578,496,34.48
109593,492,34.48
109608,492,34.48
109623,484,34.48
109638,490,34.16
109653,490,33.19
109668,495,34.16
109683,490,34.48
109698,502,33.19
109713,505,34.80
109728,524,34.48
109743,544,34.48
109758,559,34.48
109773,567,34.80
109788,567,34.80
109803,575,34.48
109818,568,33.19
109833,563,33.84
109848,556,34.80
109863,548,34.48
109878,534,33.84
109893,531,33.52
109908,522,33.52
109923,510,34.48
109938,504,34.48
109953,498,32.87
109968,495,33.84
109983,490,33.52
109998,490,33.52
110013,490,34.80
110028,484,33.52
110043,494,33.19
110058,496,33.19
110073,494,34.48
110088,498,34.80
110103,502,32.87
110118,503,34.16
110133,495,33.84
110148,491,34.80
110163,502,34.80
110178,498,34.80
110193,495,34.16
110208,494,34.80
110223,492,34.80
110238,493,34.16
110253,492,34.48
110268,488,33.19
110283,486,32.87
110298,493,34.16
110313,491,33.19
110328,492,34.48
110343,486,34.80
110358,495,32.55
110373,499,34.80
110388,519,34.16
110403,530,33.52
110418,550,34.80
110433,563,35.13
110448,568,33.84
110463,574,33.84
110478,566,34.80
110493,566,33.19
110508,554,34.80
110523,550,34.80
110538,544,34.16
110553,537,34.48
110568,530,34.16
110583,522,34.48
110598,510,33.52
110613,503,32.87
110628,498,33.52
110643,487,33.84
110658,490,34.48
110673,484,32.87
110688,492,34.80
110703,485,34.16
110718,491,33.84
110733,500,34.16
110748,503,34.80
110763,503,33.84
110778,504,34.16
110793,505,34.48
110808,501,33.84
110823,499,33.84
110838,500,34.80
110853,499,34.48
110868,489,34.80
110883,498,34.48
110898,496,34.16
110913,490,32.87
110928,487,34.16
110943,491,34.48
110958,492,34.16
110973,491,33.19
110988,491,34.48
111003,487,33.84
111018,494,34.48
111033,491,35.13
111048,506,33.19
111063,514,32.55
111078,525,32.87
111093,539,34.80
111108,554,33.19
111123,559,33.19
111138,569,34.80
111153,568,33.52
111168,568,33.19
111183,565,34.48
111198,555,34.48
111213,535,34.80
111228,535,34.16
111243,523,34.48
111258,512,33.19
111273,507,34.48
111288,491,34.48
111304,487,33.52
111319,491,34.80
111334,490,32.87
111349,491,34.48
111364,490,32.87
111379,488,34.48
111395,499,34.48
111410,493,33.19
111425,496,34.80
111440,502,34.48
111455,504,33.19
111470,498,35.13
111485,505,33.19
111500,496,33.84
111515,500,33.52
111530,499,34.80
111545,497,34.80
111560,491,33.19
111575,493,32.87
111590,489,34.80
111606,482,34.80
111621,495,34.16
111637,487,32.87
111653,491,32.55
111668,490,34.48
111684,494,34.16
111699,496,34.16
111714,498,33.84
111729,511,34.16
111745,527,33.19
111761,544,33.52
111776,556,34.48
111792,571,35.13
111807,567,33.19
111823,563,34.16
111839,569,34.80
111854,555,34.80
111870,553,34.80
111886,543,34.48
111901,536,32.87
111917,525,32.87
111932,522,34.80
111948,508,33.52
111964,502,34.16
111979,497,33.19
111995,493,34.48
112011,482,35.13
112026,483,35.45
112042,490,34.48
112057,496,34.48
112073,494,34.48
112089,492,33.52
112104,502,33.52
112120,498,34.80
112136,498,34.48
112151,504,34.48
112167,503,32.55
112182,499,34.48
112198,489,34.80
112214,495,32.87
112230,491,33.19
112246,489,33.19
112262,493,34.16
112278,491,32.87
112294,489,34.80
112310,492,34.48
112325,491,33.52
112341,493,32.87
112357,483,34.48
112372,495,34.80
112388,496,33.84
112404,507,34.80
112420,523,33.52
112436,541,33.84
112452,558,34.48
112467,571,33.84
112483,578,34.48
112499,576,35.13
112515,575,34.48
112531,568,34.48
112546,556,34.16
112562,543,33.19
112578,537,32.55
112593,521,35.13
112609,511,35.13
112624,510,33.52
112640,503,32.87
112656,489,33.52
112671,489,34.80
112687,492,33.84
112703,482,33.52
112718,490,34.80
112733,489,32.87
112748,499,34.16
112764,498,33.84
112779,495,33.84
112795,501,34.80
112811,501,32.55
112826,500,33.19
112842,502,34.48
112857,498,34.48
112872,495,32.87
112887,487,34.48
112903,494,34.80
112919,495,34.48
112934,493,34.80
112949,493,34.80
112964,492,33.19
112979,488,34.80
112994,494,34.48
113010,490,34.48
113025,484,34.80
113040,487,34.80
113055,495,34.80
113071,503,34.80
113086,516,34.48
113101,526,34.16
113116,544,34.80
113131,549,33.84
113146,558,34.80
113161,571,34.16
113176,572,34.48
113191,568,32.87
113206,562,34.48
113221,552,34.16
113236,540,33.52
113251,536,33.19
113266,525,34.80
113281,513,34.48
113296,510,34.48
113311,503,34.48
113326,496,33.52
113341,491,32.87
113356,490,34.48
113371,485,34.80
113386,484,33.19
113401,493,33.52
113416,495,30.29
113431,504,33.19
113446,501,32.87
113461,503,32.87
113476,502,34.16
113491,499,33.84
113506,494,33.52
113521,498,33.84
113536,497,33.19
113551,497,33.84
113566,494,34.48
113581,493,33.19
113596,498,33.52
113611,495,33.52
113626,493,34.80
113641,497,34.48
113656,486,34.48
113671,492,34.80
113686,492,33.19
113701,496,34.48
113716,498,34.80
113731,499,33.19
113746,514,34.16
113761,530,34.48
113776,538,32.87
113791,557,33.52
113806,566,32.87
113821,574,34.16
113836,571,33.19
113851,573,34.80
113866,568,34.80
113881,560,34.16
113896,543,34.48
113911,532,34.80
113926,530,34.80
113942,511,35.13
113957,503,34.16
113972,500,34.48
113987,490,34.48
114002,485,34.48
114017,488,33.84
114033,491,34.48
114048,490,33.19
114064,493,34.80
114080,495,33.52
114095,501,33.84
114111,498,34.48
114126,501,34.48
114141,502,34.48
114156,504,34.48
114171,503,37.71
114186,498,34.48
114201,496,33.19
114216,498,34.16
114232,499,34.80
114248,488,33.19
114263,502,34.16
114279,495,34.48
114294,493,34.16
114310,489,34.80
114326,495,33.19
114341,492,32.87
114357,488,34.80
114373,488,33.52
114388,500,34.80
114404,508,34.80
114419,524,33.19
114435,540,35.45
114451,552,34.48
114466,572,32.87
114482,573,33.19
114498,578,34.16
114513,573,32.87
114529,565,34.80
114545,556,33.52
114561,547,32.87
114577,535,30.62
114592,524,34.80
114608,516,32.87
114624,510,33.84
114639,494,34.16
114655,493,32.87
114671,486,34.48
114687,482,34.48
114703,479,33.19
114719,492,34.80
114734,494,34.16
114750,493,34.80
114766,500,34.80
114782,505,35.13
114798,491,34.80
114813,498,33.52
114829,499,33.19
114845,503,34.48
114861,503,34.16
114877,506,34.48
114893,495,34.16
114909,499,34.48
114924,498,33.19
114940,499,33.19
114955,496,34.80
114971,495,33.19
114987,491,34.80
115002,486,34.80
115018,491,34.48
115033,494,34.80
115049,495,34.48
115065,510,32.87
115080,522,34.48
115096,530,34.16
115111,550,34.48
115127,556,34.80
115142,565,34.48
115157,560,33.19
115173,558,35.45
115188,555,34.80
115204,547,34.48
115219,536,35.13
115234,529,34.48
115249,518,34.80
115265,504,34.80
115281,502,33.19
115296,497,34.48
115312,494,34.80
115327,492,34.48
115342,491,34.16
115357,483,34.48
115372,491,32.87
115387,491,34.80
115402,504,34.16
115417,507,33.84
115433,501,34.80
115448,509,34.48
115463,513,34.48
115478,502,34.80
115493,506,34.48
115508,504,33.52
115523,504,34.48
115538,497,34.48
115553,494,32.87
115568,497,34.80
115583,496,34.80
115598,496,34.16
115613,494,34.48
115628,500,34.80
115643,498,34.48
115658,497,33.84
115673,495,34.48
115688,498,34.80
115703,509,34.48
115718,531,34.16
115733,545,33.52
115748,562,33.52
115763,561,33.52
115778,567,33.84
115793,565,33.52
115808,569,34.48
115823,564,33.19
115838,552,35.45
115853,552,35.13
115868,530,34.80
115883,525,32.87
115898,519,33.84
115913,508,32.87
115928,500,34.80
115943,495,34.16
115958,488,34.48
115973,487,34.80
115988,480,34.48
116003,482,34.80
116018,485,34.48
116033,497,34.48
116048,501,34.48
116063,501,34.16
116078,505,34.48
116093,501,32.87
116108,495,34.80
116123,501,34.16
116138,493,34.48
116153,492,34.16
116168,497,34.16
116183,496,33.19
116198,502,34.80
116213,489,34.48
116228,490,34.48
116243,496,34.80
116258,485,33.84
116273,494,34.16
116288,490,34.48
116303,496,34.48
116318,501,34.80
116333,509,32.87
116348,525,34.48
116363,534,33.19
116378,553,34.80
116393,562,33.19
116408,562,32.55
116423,570,34.16
116438,567,34.80
116453,559,32.87
116468,561,34.48
116483,551,33.52
116498,547,34.80
116513,538,34.16
116528,524,32.55
116543,520,34.16
116558,508,33.19
116573,496,34.80
116588,489,35.45
116603,491,34.80
116619,479,33.19
116634,481,34.48
116649,483,34.48
116664,493,33.52
116679,495,34.48
116694,493,34.80
116709,496,34.80
116724,502,35.45
116740,502,34.80
116755,495,34.80
116770,495,33.84
116785,497,34.48
116800,493,33.84
116815,494,34.48
116831,494,34.48
116847,497,33.52
116862,498,34.16
116878,495,34.80
116893,487,34.48
116909,492,34.80
116925,493,34.16
116940,487,34.48
116956,505,34.80
116971,511,33.19
116987,530,32.87
117003,540,37.38
117018,554,32.87
117034,569,34.48
117049,570,34.48
117065,572,34.16
117081,567,33.84
117097,555,34.48
117112,555,34.48
117128,541,33.19
117144,527,33.19
117160,520,34.48
117176,516,34.80
117191,504,32.87
117207,492,33.19
117223,496,34.16
117238,489,34.80
117254,485,34.80
117269,488,34.48
117285,490,33.19
117300,493,33.19
117316,499,34.80
117332,500,33.52
117348,504,34.16
117363,505,34.80
117379,505,34.48
117395,504,32.87
117411,503,33.52
117427,495,33.84
117442,502,34.48
117458,498,34.16
117474,496,33.52
117489,495,34.80
117505,492,33.19
117521,490,32.87
117536,486,34.80
117552,486,33.19
117567,494,33.19
117583,498,34.80
117599,510,34.80
117614,528,34.48
117630,546,34.80
117645,561,34.48
117661,561,34.16
117676,571,33.19
117691,561,34.16
117706,566,35.13
117721,555,34.48
117737,551,35.13
117752,544,34.48
117767,528,34.48
117782,530,34.48
117798,522,34.48
117813,515,34.48
117829,505,33.84
117844,499,33.84
117859,492,33.52
117874,480,33.84
117890,492,34.48
117906,489,33.84
117921,494,34.48
117937,492,34.80
117952,489,33.84
117967,504,34.48
117982,499,32.87
117997,504,34.16
118012,504,34.48
118027,501,34.80
118042,505,34.80
118058,501,34.80
118073,499,34.48
118088,495,34.48
118103,494,34.16
118118,495,34.16
118133,494,34.80
118148,489,34.80
118163,491,33.19
118178,496,34.48
118193,497,35.13
118208,500,34.48
118223,500,33.84
118238,511,34.80
118253,533,33.52
118268,546,33.19
118283,564,34.80
118298,560,34.48
118313,572,34.16
118328,566,33.19
118343,564,33.52
118358,557,34.80
118373,549,33.52
118388,540,35.13
118403,525,33.19
118418,520,33.19
118433,507,34.80
118448,508,34.80
118463,503,34.48
118478,493,34.48
118493,489,33.52
118508,487,34.48
118523,479,32.87
118538,491,34.16
118553,483,32.55
118568,492,34.80
118583,500,34.80
118598,501,34.48
118613,505,33.84
118628,503,33.19
118643,498,32.55
118658,501,33.52
118673,493,35.13
118688,499,33.19
118703,497,33.52
118718,498,34.16
118733,496,34.16
118748,497,33.52
118763,497,34.48
118778,496,33.52
118793,492,33.52
118808,494,34.16
118823,497,33.52
118838,501,34.16
118853,509,33.19
118868,515,34.48
118883,538,34.48
118898,547,32.87
118913,564,33.52
118928,570,34.16
118943,569,33.19
118958,563,34.80
118973,564,32.87
118988,557,34.80
119003,546,34.80
119018,532,34.80
119033,532,34.48
119048,526,34.80
119063,514,33.19
119078,502,32.87
119093,503,34.48
119108,499,34.80
119123,492,32.87
119138,488,34.80
119153,489,34.16
119168,488,34.48
119183,494,34.48
119198,495,36.42
119213,498,34.16
119228,495,34.80
119243,504,34.48
119258,500,33.19
119273,502,34.48
119288,501,34.16
119304,494,33.19
119319,496,34.48
119334,494,34.48
119349,500,34.80
119364,490,34.80
119379,495,32.87
119394,491,34.80
119409,493,34.48
119424,487,34.80
119439,485,34.48
119454,490,35.13
119469,495,34.48
119484,510,34.80
119499,516,34.80
119514,540,34.48
119529,556,33.84
119544,556,33.84
119559,572,34.16
119574,573,32.55
119589,565,34.48
119604,566,34.48
119619,556,33.52
119635,548,34.16
119650,544,34.16
119665,536,34.80
119680,521,34.80
119695,522,33.19
119710,515,35.13
119725,505,34.80
119740,493,34.48
119755,486,33.19
119770,482,34.80
119786,486,33.19
119801,478,33.19
119817,492,34.80
119833,493,34.80
119848,495,34.80
119863,499,34.80
119879,501,33.84
119895,500,32.87
119911,494,32.55
119926,499,34.16
119942,500,34.80
119958,490,34.48
119974,496,33.19
119989,488,32.87
120004,488,34.16
120020,492,34.48
120036,483,34.48
120051,486,32.87
120066,491,34.48
120082,490,32.87
120098,490,34.80
120114,503,34.80
120130,511,34.80
120146,519,34.80
120161,533,34.48
120177,553,35.13
120193,557,34.48
120208,572,33.84
120224,570,34.48
120239,559,33.52
120255,555,32.87
120271,553,34.80
120286,541,33.19
120302,537,33.84
120317,529,35.45
120332,521,34.48
120347,518,34.48
120363,512,34.16
120378,503,33.52
120394,490,34.48
120409,485,34.48
120424,490,34.48
120440,487,33.52
120455,484,34.48
120471,483,34.48
120486,492,35.13
120501,492,33.19
120516,490,33.19
120532,500,34.16
120547,505,34.80
120562,499,32.87
120577,501,33.52
120592,493,34.48
120607,490,34.48
120622,497,33.52
120637,490,33.84
120653,489,35.13
120668,486,34.80
120683,489,34.48
120698,497,34.16
120713,495,34.80
120728,494,34.16
120743,495,33.52
120758,495,34.48
120773,500,34.16
120788,509,34.80
120803,515,34.48
120818,535,34.80
120834,551,34.48
120849,554,34.48
120864,564,33.52
120879,564,35.13
120894,567,34.80
120909,560,34.16
120924,554,33.84
120939,549,34.48
120954,530,34.48
120969,526,34.16
120984,513,33.52
120999,507,34.48
121014,500,32.87
121029,502,34.48
121044,490,32.87
121059,489,34.48
121074,481,33.19
121089,485,33.84
121104,486,34.80
121119,488,32.87
121134,494,34.48
121149,496,34.80
121164,500,34.80
121179,503,35.13
121194,502,32.55
121209,495,33.19
121224,502,34.48
121239,499,33.52
121254,491,33.84
121269,490,32.87
121284,486,34.80
121299,497,34.16
121314,494,34.16
121329,496,34.80
121344,490,33.52
121359,493,34.48
121374,489,34.80
121389,492,34.48
121404,494,34.48
121419,494,34.48
121434,503,32.87
121449,514,33.52
121464,528,34.48
121479,548,33.19
121494,553,34.80
121509,568,34.48
121524,571,34.80
121539,562,33.52
121554,564,34.16
121569,547,34.48
121584,547,34.48
121599,541,34.48
121614,534,34.80
121629,528,34.48
121644,518,33.52
121659,504,34.16
121674,497,33.19
121689,496,34.48
121704,487,32.87
121719,487,33.84
121734,488,34.48
121749,478,34.80
121764,498,34.80
121779,489,34.48
121794,497,34.48
121809,502,34.80
121824,505,34.16
121839,501,34.48
121854,501,34.80
121869,500,34.80
121884,495,34.48
121899,500,34.16
121914,497,34.16
121929,498,34.16
121944,495,32.87
121959,493,32.55
121974,495,34.48
121989,492,34.16
122004,490,34.48
122019,491,34.48
122034,492,34.80
122049,489,34.16
122064,498,34.16
122079,498,33.52
122094,508,33.52
122109,524,34.80
122124,539,34.48
122139,550,34.16
122154,567,34.48
122169,566,34.80
122184,565,33.19
122199,562,32.87
122214,562,33.84
122229,558,34.80
122244,546,34.80
122259,538,34.48
122274,532,34.80
122289,513,34.80
122304,513,34.48
122319,502,32.87
122334,502,34.16
122349,487,33.52
122364,492,34.48
122379,486,34.80
122394,483,33.84
122409,491,34.16
122424,494,34.48
122439,492,33.84
122454,492,34.80
122469,490,33.84
122484,492,33.52
122499,501,34.80
122514,502,33.19
122529,501,34.80
122544,498,32.87
122559,503,34.48
122574,502,35.13
122589,501,34.16
122604,494,34.48
122619,497,34.80
122634,495,34.48
122649,489,32.87
122664,496,34.48
122679,498,32.87
122694,493,35.13
122709,494,32.87
122724,497,32.87
122739,496,34.16
122754,507,34.80
122769,523,34.80
122784,536,34.80
122799,549,35.13
122814,558,34.80
122829,571,34.16
122844,572,33.19
122859,572,33.52
122874,567,34.80
122889,556,33.19
122904,551,34.16
122919,542,34.48
122934,531,33.19
122949,525,34.80
122964,519,34.16
122979,511,33.52
122994,503,33.84
123009,494,32.87
123024,490,34.48
123039,487,34.80
123054,483,33.19
123069,479,34.48
123084,491,33.84
123099,489,34.48
123114,497,34.16
123129,493,33.52
123144,501,34.48
123159,503,34.80
123174,501,34.80
123189,501,34.80
123204,500,34.48
123219,495,34.80
123234,486,32.87
123249,491,33.19
123264,487,34.16
123279,497,34.80
123294,490,33.19
123309,495,33.84
123324,485,34.48
123339,493,33.19
123354,492,34.80
123369,491,34.48
123384,493,34.16
123399,491,34.48
123414,498,33.52
123429,506,32.55
123444,517,34.80
123459,539,33.84
123474,553,34.16
123489,556,33.19
123504,562,34.48
123519,570,33.84
123534,567,34.80
123549,558,32.87
123564,552,33.19
123579,548,34.80
123594,533,33.84
123609,529,34.48
123624,525,34.48
123639,511,32.87
123654,507,34.48
123669,499,34.16
123684,496,34.48
123699,490,33.52
123714,489,34.48
123729,491,34.16
123744,490,34.48
123759,489,33.52
123774,496,32.87
123789,499,34.48
123804,499,34.48
123819,499,32.55
123834,503,34.16
123849,493,33.84
123864,497,34.80
123879,496,32.55
123894,498,32.55
123909,497,34.48
123924,492,33.84
123939,496,34.16
123954,494,33.19
123969,493,34.16
123984,487,34.80
123999,492,33.19
124014,495,34.48
124029,496,34.48
124044,489,34.48
124059,495,34.48
124074,500,33.84
124089,513,33.52
124104,528,33.84
124119,537,34.16
124134,552,34.80
124149,561,32.87
124164,568,34.48
124179,565,32.87
124194,568,34.48
124209,559,33.19
124224,555,33.19
124239,547,34.48
124254,535,34.48
124269,520,33.84
124284,511,33.52
124299,511,34.48
124314,507,34.80
124329,498,34.80
124344,487,33.19
124359,491,34.80
124374,491,34.48
124389,490,34.48
124404,487,34.16
124419,496,34.80
124434,497,34.48
124449,492,33.52
124464,500,33.52
124479,504,34.80
124494,500,34.16
124509,500,33.19
124524,493,33.84
124539,499,34.16
124554,498,33.52
124569,495,34.16
124584,498,34.16
124599,488,34.48
124614,496,34.80
124629,496,34.48
124644,497,34.48
124659,489,34.80
124674,493,32.87
124689,494,34.16
124704,489,34.16
124719,498,34.48
124734,513,34.48
124749,517,34.80
124764,541,35.45
124779,557,34.48
124794,561,33.19
124809,565,35.13
124824,575,34.80
124839,566,32.87
124854,557,34.48
124869,549,33.19
124884,542,34.16
124899,534,33.84
124914,533,32.87
124929,524,33.84
124944,511,34.48
124959,504,34.48
124974,502,33.52
124989,497,32.55
125004,487,33.19
125019,490,34.48
125034,489,34.16
125049,489,33.19
125064,485,34.80
125079,498,34.16
125094,500,34.48
125109,493,34.80
125124,503,34.48
125139,500,33.52
125154,496,34.80
125169,493,35.13
125184,492,34.48
125199,498,32.87
125214,500,34.16
125229,492,32.87
125244,493,34.48
125259,495,34.80
125274,496,34.80
125289,496,34.80
125304,494,34.16
125319,491,32.87
125334,487,35.45
125349,493,34.48
125364,493,34.80
125379,502,33.52
125394,512,34.80
125409,525,33.52
125424,538,34.48
125439,560,34.48
125454,565,33.84
125469,570,33.19
125484,563,33.19
125499,570,33.19
125514,560,33.19
125529,557,32.87
125544,549,34.80
125559,539,34.80
125574,523,34.16
125589,521,34.16
125604,514,34.80
125619,507,34.80
125634,491,34.48
125649,490,32.55
125664,485,34.48
125679,489,34.48
125694,483,34.48
125709,489,34.16
125724,495,34.48
125739,494,32.87
125754,498,34.80
125769,499,33.52
125784,493,34.80
125799,500,34.48
125814,501,34.48
125829,501,34.80
125844,500,34.80
125859,500,34.16
125874,498,32.87
125889,492,34.80
125904,490,34.80
125919,486,35.13
125934,487,32.55
125949,493,33.19
125964,493,33.19
125979,494,34.48
125994,496,34.48
126009,494,33.84
126024,492,34.48
126039,508,34.48
126054,519,34.48
126069,530,34.80
126084,547,32.87
126099,561,34.48
126114,571,34.16
126129,577,34.48
126144,571,33.52
126159,566,35.13
126174,560,34.48
126189,551,35.13
126204,538,34.80
126219,536,34.80
126234,524,34.80
126249,510,34.48
126264,503,33.52
126279,504,33.84
126294,495,34.80
126309,492,34.16
126324,488,33.19
126339,488,35.13
126354,479,33.52
126369,490,33.84
126384,489,33.19
126399,493,33.19
126414,493,34.48
126429,495,32.87
126444,501,34.48
126459,493,34.16
126474,502,34.80
126489,501,34.48
126504,497,34.16
126519,498,34.80
126534,487,34.80
126549,492,34.16
126564,495,34.80
126579,491,33.52
126594,491,34.48
126609,496,33.84
126624,494,34.48
126639,493,33.84
126654,496,34.48
126669,491,34.48
126684,498,34.48
126699,509,33.19
126714,533,34.48
126729,540,34.16
126744,560,34.80
126759,562,34.80
126774,562,35.13
126789,569,34.48
126804,566,34.80
126819,557,34.80
126834,545,34.80
126849,529,34.48
126864,533,34.48
126879,524,34.48
126894,513,34.16
126909,502,34.48
126924,501,33.19
126939,496,34.48
126954,492,34.48
126969,485,34.16
126984,485,34.16
126999,490,33.19
127014,483,33.19
127029,489,33.52
127044,498,34.48
127059,496,34.80
127074,499,32.55
127089,501,34.48
127104,500,34.80
127119,502,34.16
127134,496,34.48
127149,493,34.48
127164,497,34.48
127179,497,34.80
127194,501,34.16
127209,494,32.87
127224,496,33.84
127239,490,32.87
127254,492,34.48
127269,493,34.80
127284,490,32.87
127299,489,34.80
127314,502,34.48
127329,505,35.13
127344,525,34.80
127359,533,34.48
127374,554,34.48
127389,565,34.48
127404,572,33.84
127419,566,34.48
127434,568,34.16
127449,560,32.87
127464,558,34.16
127479,548,34.48
127494,541,33.19
127509,532,34.16
127524,522,34.48
127539,506,34.80
127554,499,34.48
127569,497,33.84
127584,489,33.19
127599,488,34.48
127614,486,32.55
127629,485,33.19
127644,491,33.19
127659,494,33.52
127674,496,34.48
127689,490,32.55
127704,501,34.80
127719,497,32.87
127734,498,34.48
127749,500,33.19
127764,493,33.19
127779,499,34.16
127794,501,34.80
127809,497,33.19
127824,489,33.52
127839,500,34.16
127854,496,34.48
127869,496,34.48
127884,494,34.16
127899,495,34.48
127914,490,33.19
127929,490,34.80
127944,498,34.80
127959,505,34.16
127974,516,34.80
127989,530,34.48
128004,542,34.80
128019,558,34.48
128034,561,34.48
128049,570,34.48
128064,572,34.48
128079,569,33.19
128094,566,32.87
128109,558,34.48
128124,549,34.16
128139,541,34.80
128154,531,32.87
128169,521,34.80
128184,512,34.16
128199,502,33.19
128214,501,34.80
128229,496,34.48
128244,492,34.80
128259,484,33.52
128274,480,34.80
128289,490,34.80
128304,486,34.80
128319,494,34.80
128334,492,32.87
128349,491,33.19
128364,492,32.55
128379,495,33.19
128394,497,32.87
128409,502,34.16
128424,493,34.48
128439,495,34.48
128454,498,34.48
128469,489,33.52
128484,494,35.13
128499,489,34.80
128514,494,34.48
128529,492,32.87
128544,491,33.52
128559,493,34.16
128574,495,34.48
128589,495,34.48
128604,490,34.48
128619,505,33.52
128634,507,34.80
128649,528,33.52
128664,535,34.16
128679,550,33.52
128694,566,34.80
128709,571,34.48
128724,568,34.48
128739,569,34.80
128754,563,34.48
128769,547,34.16
128784,542,34.16
128799,535,34.48
128814,529,34.80
128829,521,34.48
128844,507,33.52
128859,507,34.80
128874,491,34.80
128889,492,34.48
128904,483,32.87
128919,488,33.84
128934,484,34.48
128949,482,34.48
128964,485,34.80
128979,486,34.80
128994,498,33.19
129009,493,34.80
129024,493,34.80
129039,500,34.80
129054,502,34.48
129069,494,33.19
129084,499,34.80
129099,498,33.19
129114,499,34.48
129129,491,34.48
129144,500,34.48
129159,495,33.84
129174,497,34.48
129189,493,34.80
129204,487,33.19
129219,484,34.16
129234,489,32.87
129249,491,34.80
129264,495,34.48
129279,504,34.16
129294,508,33.19
129309,530,34.48
129324,542,33.84
129339,564,34.48
129354,558,35.13
129369,569,34.48
129384,564,33.84
129399,565,33.84
129414,561,33.52
129429,547,34.48
129444,544,34.80
129459,537,34.48
129474,527,34.16
129489,512,33.52
129504,500,34.16
129519,502,34.80
129534,494,34.80
129549,491,33.19
129564,483,33.52
129579,488,34.48
129594,493,34.48
129609,485,34.80
129624,489,32.87
129639,491,33.19
129654,499,33.19
129669,500,33.19
129684,500,34.80
129699,495,34.48
129714,499,34.80
129729,499,34.16
129744,501,33.84
129759,496,34.16
129774,490,34.48
129789,490,35.13
129804,497,33.84
129819,489,33.19
129834,493,34.16
129849,492,34.48
129864,493,34.48
129879,491,33.84
129894,493,34.48
129909,497,34.48
129924,502,34.48
129939,507,33.84
129954,515,33.52
129969,536,33.84
129984,547,35.13
129999,560,34.16
130014,562,35.13
130029,574,34.48
130044,570,34.48
130059,555,34.16
130074,553,32.87
130089,547,34.48
130104,540,35.45
130119,522,34.80
130134,514,34.80
130149,511,34.16
130164,499,34.80
130179,495,34.80
130194,496,33.52
130209,490,33.52
130224,494,34.48
130239,491,32.55
130254,494,34.80
130269,491,33.19
130284,489,33.52
130300,501,34.48
130315,502,32.87
130330,507,34.48
130345,503,33.19
130360,507,33.52
130375,506,34.80
130391,504,33.19
130406,506,34.48
130421,503,34.80
130436,491,34.80
130451,488,34.80
130466,492,34.16
130482,492,34.48
130498,490,33.19
130513,494,34.80
130529,496,34.80
130544,494,34.80
130559,495,33.19
130574,500,34.48
130590,496,34.80
130606,527,34.16
130621,538,34.80
130637,554,34.48
130653,562,34.80
130668,568,34.80
130684,563,33.52
130699,561,33.19
130715,556,33.19
130731,549,34.80
130746,545,34.80
130762,541,34.48
130778,531,32.87
130793,524,34.48
130809,508,34.80
130824,508,34.48
130840,501,34.80
130856,498,34.48
130871,487,33.19
130887,490,34.80
130903,486,33.52
130919,489,34.16
130935,487,34.80
130951,491,33.52
130967,497,33.84
130983,505,34.48
130999,499,33.52
131014,501,34.48
131030,498,34.48
131046,501,34.16
131062,499,32.87
131078,492,35.13
131094,496,34.48
131110,500,34.16
131126,496,34.48
131142,497,34.48
131158,495,33.52
131174,493,34.16
131190,496,34.16
131206,490,33.52
131222,498,34.16
131238,503,34.80
131254,511,33.52
131270,525,35.13
131286,539,32.87
131302,554,33.19
131318,566,34.80
131333,569,34.48
131349,565,33.19
131364,561,34.48
131380,562,34.16
131396,553,34.48
131411,546,32.87
131427,543,34.80
131443,525,34.80
131459,518,35.13
131475,514,34.80
131491,506,34.48
131506,491,34.80
131522,486,33.19
131537,490,34.16
131553,489,34.48
131569,489,34.16
131584,483,33.52
131600,486,34.80
131615,490,33.52
131631,497,33.84
131647,501,34.80
131662,496,34.16
131678,502,33.52
131693,501,34.48
131709,502,35.13
131725,500,34.48
131740,493,33.19
131756,492,35.13
131771,497,33.52
131786,489,33.52
131801,495,33.52
131816,488,34.80
131831,492,34.80
131846,493,34.16
131861,491,32.87
131877,487,34.48
131892,497,34.48
131907,505,34.48
131922,508,34.80
131937,524,34.80
131952,536,34.80
131967,551,34.48
131982,562,33.19
131997,570,34.48
132012,573,34.48
132028,572,34.48
132043,568,34.16
132058,561,34.80
132073,541,34.80
132088,538,34.16
132103,522,34.80
132118,519,34.48
132133,509,34.80
132148,504,34.16
132163,497,34.16
132178,489,33.19
132193,489,34.80
132208,481,33.19
132223,489,34.48
132238,484,33.19
132253,494,34.80
132268,500,34.48
132283,494,34.48
132298,493,34.48
132313,504,34.48
132328,503,32.87
132343,503,32.55
132358,503,34.80
132373,498,32.87
132388,500,33.84
132403,499,34.48
132418,498,34.48
132433,485,34.80
132448,494,34.16
132463,496,34.16
132478,492,33.19
132493,496,34.48
132508,493,33.84
132523,491,34.16
132538,494,33.19
132553,498,35.13
132568,502,32.87
132583,516,33.19
132598,526,35.13
132613,545,34.80
132628,557,34.48
132643,567,34.16
132658,570,34.48
132673,567,34.48
132688,565,35.13
132703,552,34.48
132718,543,35.13
132733,532,33.52
132748,524,32.87
132763,524,34.48
132778,517,34.80
132793,508,32.87
132808,502,33.19
132823,491,33.52
132838,483,34.80
132853,483,36.09
132868,488,33.19
132883,484,32.87
132899,483,34.80
132914,493,33.19
132930,491,34.80
132945,498,34.80
132960,498,33.19
132975,497,33.19
132990,498,31.26
133005,504,34.16
133021,501,34.80
133037,502,33.19
133052,495,34.80
133068,497,34.48
133084,492,33.19
133099,485,34.16
133115,494,35.13
133130,491,33.52
133146,493,34.80
133161,492,34.48
133176,497,34.80
133192,500,34.48
133207,508,34.16
133223,515,33.19
133238,529,32.55
133254,558,34.48
133270,561,34.48
133285,570,34.80
133301,570,32.55
133317,568,34.48
133332,560,33.52
133348,554,35.45
133363,543,34.48
133379,534,34.80
133395,531,34.48
133410,524,34.16
133426,517,34.48
133442,508,35.13
133458,497,34.80
133474,485,32.55
133490,487,34.80
133506,484,35.13
133522,493,34.48
133538,495,33.84
133554,495,34.48
133570,490,34.80
133586,499,34.48
133602,500,35.13
133618,498,33.52
133634,501,34.16
133650,498,34.16
133665,494,32.87
133681,497,34.16
133697,498,33.19
133713,492,34.48
133729,495,34.48
133745,494,34.16
133760,490,33.19
133776,497,34.48
133791,494,34.16
133807,488,34.48
133823,493,33.84
133838,495,34.48
133854,506,34.48
133870,516,34.16
133885,530,32.55
133901,546,32.23
133916,554,33.52
133932,565,35.77
133947,563,34.48
133963,563,33.52
133979,562,32.55
133994,561,34.48
134010,550,34.48
134026,534,34.80
134041,529,34.16
134057,525,34.48
134072,520,34.80
134088,504,33.52
134104,493,33.19
134119,492,34.48
134135,492,34.48
134150,485,33.52
134165,478,32.55
134180,484,35.13
134196,490,33.19
134211,494,34.48
134226,498,32.87
134241,497,34.80
134256,501,33.84
134271,498,32.87
134286,503,34.48
134301,500,34.16
134316,490,33.19
134331,493,34.48
134346,500,34.48
134361,495,34.48
134377,498,32.87
134392,496,34.48
134407,490,34.80
134422,493,34.16
134437,489,34.80
134452,493,33.52
134467,494,34.16
134482,494,33.52
134497,500,33.84
134512,511,34.80
134527,523,33.84
134542,538,33.19
134557,552,34.80
134572,561,34.80
134587,564,34.48
134602,571,34.80
134617,567,33.84
134632,560,34.48
134647,556,35.13
134662,552,34.48
134677,544,34.48
134692,537,34.80
134707,533,34.80
134722,520,33.84
134737,512,34.48
134752,503,34.16
134767,497,34.80
134782,493,34.80
134797,492,32.87
134812,490,33.19
134827,485,33.84
134842,496,34.48
134857,498,34.48
134872,494,34.80
134887,500,34.80
134902,500,35.13
134917,506,34.16
134932,500,33.19
134947,502,32.87
134962,506,34.48
134977,502,33.84
134992,495,33.19
135007,502,33.19
135022,496,34.80
135037,490,34.80
135052,496,34.16
135067,495,34.80
135082,492,33.84
135097,491,34.48
135112,490,32.87
135127,493,33.52
135142,497,34.80
135157,504,34.48
135172,511,34.80
135187,526,34.16
135202,538,34.48
135218,555,34.48
135233,558,34.80
135248,561,34.48
135263,568,34.48
135278,563,34.80
135293,560,33.19
135309,557,32.87
135324,544,34.48
135339,533,32.55
135354,527,33.52
135369,513,33.19
135384,510,34.80
135400,504,34.80
135415,490,33.19
135430,491,33.19
135445,493,34.16
135460,493,34.80
135475,486,34.48
135491,497,34.48
135507,497,34.16
135522,494,33.52
135538,505,34.80
135554,505,34.80
135569,497,33.19
135585,505,33.52
135600,504,34.80
135616,503,33.84
135632,493,34.80
135648,498,34.80
135663,499,34.16
135679,498,33.84
135694,492,34.48
135710,498,34.16
135725,495,34.80
135740,494,34.48
135755,494,34.80
135771,488,34.16
135787,498,33.19
135803,509,34.16
135819,522,34.48
135835,534,33.52
135850,546,33.52
135866,561,34.48
135882,566,33.52
135898,572,34.80
135914,565,34.48
135930,557,33.19
135946,550,34.16
135962,542,34.48
135978,536,33.52
135994,525,34.16
136010,513,33.52
136026,510,34.48
136042,501,35.13
136058,492,33.84
136074,486,34.16
136090,487,34.80
136105,485,34.80
136121,494,34.16
136137,497,34.80
136152,498,34.48
136168,502,34.48
136184,500,34.48
136200,504,33.84
136216,502,34.48
136232,502,33.84
136247,501,34.48
136263,492,34.80
136279,491,34.48
136295,497,34.48
136311,497,34.80
136327,489,34.48
136342,497,32.87
136357,488,33.19
136372,488,34.16
136388,487,34.80
136403,487,34.16
136419,492,34.80
136434,497,34.16
136450,515,34.48
136466,525,34.80
136481,539,34.80
136497,560,34.48
136512,563,34.80
136527,566,32.55
136542,575,33.52
136558,568,34.48
136574,560,34.48
136589,553,33.19
136604,538,34.16
136619,535,33.52
136635,523,33.84
136650,516,34.80
136665,511,33.19
136680,504,34.48
136696,501,34.48
136711,497,32.87
136726,495,33.19
136741,491,34.48
136756,496,33.84
136771,495,34.48
136786,493,35.13
136801,494,34.48
136816,498,33.52
136831,496,33.84
136846,495,34.48
136861,502,34.80
136877,503,34.80
136892,504,34.80
136907,500,33.19
136922,488,34.80
136937,497,32.87
136952,491,33.52
136967,488,33.52
136982,491,34.48
136997,492,34.48
137012,489,35.13
137027,493,34.80
137042,497,34.48
137057,493,34.80
137072,499,33.19
137087,517,34.80
137102,523,34.80
137117,544,34.48
137132,554,34.48
137147,558,32.87
137162,571,34.48
137177,568,33.19
137192,569,33.84
137207,556,34.80
137222,552,33.52
137237,542,34.80
137252,532,34.48
137267,530,33.84
137282,520,34.48
137297,507,32.87
137312,503,33.19
137327,495,33.19
137342,495,33.19
137357,496,34.80
137372,489,34.80
137387,492,34.80
137402,487,35.13
137417,496,34.80
137432,491,34.80
137447,495,34.48
137462,501,32.87
137477,498,34.80
137492,497,34.48
137507,502,34.48
137522,491,34.80
137537,497,34.48
137552,499,34.48
137567,492,34.80
137582,486,34.80
137597,495,35.13
137612,488,34.80
137627,490,34.48
137642,489,33.84
137657,488,34.80
137672,493,33.19
137687,489,34.80
137702,493,34.80
137717,508,34.48
137732,519,34.16
137747,532,32.87
137762,545,33.52
137777,561,34.48
137792,569,34.80
137807,572,34.80
137822,574,34.80
137837,564,34.80
137852,552,34.48
137867,548,34.80
137882,538,35.13
137897,529,34.48
137912,520,33.84
137927,506,33.19
137942,505,34.48
137957,499,33.52
137972,496,32.87
137987,485,32.87
138002,487,33.19
138017,487,34.48
138032,487,34.48
138047,494,33.52
138062,492,35.13
138077,500,33.84
138092,501,34.48
138107,503,34.80
138122,504,34.48
138137,495,33.84
138152,502,34.48
138167,501,33.19
138182,498,34.48
138197,499,34.80
138212,492,32.87
138227,495,34.80
138242,498,34.80
138257,491,34.48
138272,493,33.19
138287,496,34.48
138302,489,34.48
138317,497,33.19
138332,499,34.80
138347,511,34.80
138362,523,34.48
138377,540,33.19
138392,556,35.13
138407,562,33.19
138422,569,34.80
138437,566,33.19
138452,569,34.16
138467,564,34.80
138482,552,33.52
138497,547,33.19
138512,540,33.19
138527,533,34.48
138542,526,34.16
138557,509,33.52
138572,501,34.80
138587,494,33.52
138602,494,34.48
138617,486,34.80
138632,488,34.48
138647,488,34.48
138662,483,34.48
138677,488,33.19
138692,497,33.84
138707,499,33.19
138722,509,34.80
138737,503,33.19
138752,503,33.52
138767,503,34.80
138782,499,35.13
138797,500,34.80
138812,498,34.48
138827,495,34.80
138842,499,34.80
138857,492,34.80
138872,489,33.52
138887,488,33.52
138902,492,34.16
138917,485,33.52
138932,483,34.48
138947,490,34.80
138962,501,34.80
138977,506,33.52
138992,526,33.52
139007,538,34.80
139022,558,34.48
139037,561,33.19
139052,572,34.80
139067,576,34.48
139082,561,34.80
139097,560,33.84
139112,559,34.80
139127,546,34.80
139142,536,33.19
139157,538,34.80
139172,526,33.84
139187,519,34.16
139202,505,34.80
139217,503,34.80
139232,492,34.80
139247,483,32.55
139262,487,34.80
139277,480,33.84
139292,489,34.48
139307,493,34.48
139322,494,35.13
139337,494,34.80
139352,496,34.80
139367,499,33.84
139382,494,33.19
139397,496,35.13
139412,495,34.48
139427,500,34.80
139442,495,33.19
139457,495,32.87
139472,498,33.52
139487,494,34.16
139502,491,33.52
139517,491,33.19
139532,482,33.19
139547,486,33.52
139562,486,34.48
139577,489,34.80
139592,495,34.80
139607,507,34.48
139622,518,34.16
139637,533,34.16
139652,549,34.80
139667,562,33.52
139682,567,34.16
139697,573,34.80
139712,571,32.87
139727,564,34.80
139742,565,33.52
139757,551,33.52
139772,548,34.80
139787,534,33.19
139802,527,34.48
139817,513,33.19
139832,507,34.80
139847,498,34.48
139862,494,33.19
139877,490,34.48
139892,486,33.19
139907,486,33.19
139922,487,34.48
139937,486,32.87
139952,491,34.80
139967,492,34.16
139982,495,34.48
139997,496,34.16
140012,491,34.48
140027,503,34.80
140042,501,34.80
140057,493,32.87
140072,500,34.48
140087,491,34.80
140102,496,34.80
140117,486,33.52
140132,484,33.19
140147,485,34.80
140162,489,33.19
140177,490,34.80
140192,492,34.48
140207,485,34.80
140222,486,33.52
140237,491,34.48
140252,504,34.80
140267,512,33.19
140282,525,33.52
140297,542,34.16
140312,555,32.87
140327,566,34.80
140342,577,34.80
140357,576,34.48
140372,562,34.16
140387,562,33.84
140402,544,34.80
140417,540,34.48
140432,529,33.84
140447,514,34.80
140462,503,34.80
140477,498,34.80
140492,497,33.84
140507,493,34.48
140522,490,34.48
140537,482,33.19
140552,481,34.48
140567,485,34.16
140582,486,33.52
140597,493,34.48
140612,499,34.48
140627,491,34.48
140642,502,34.80
140657,498,32.87
140672,495,34.80
140687,491,35.13
140702,498,34.48
140717,489,34.48
140732,493,33.84
140747,487,32.55
140762,491,34.16
140777,486,34.16
140792,493,32.55
140807,487,35.13
140822,485,34.48
140837,491,33.19
140852,491,34.16
140867,498,34.48
140882,500,34.48
140897,505,34.48
140912,528,33.84
140927,544,33.84
140942,561,34.80
140957,570,34.80
140972,570,33.19
140987,574,34.80
141002,567,34.16
141017,567,34.48
141032,560,34.16
141047,553,34.48
141062,535,33.84
141077,529,34.80
141092,536,34.48
141107,518,34.80
141122,507,32.87
141137,497,34.80
141152,488,34.80
141167,478,33.52
141182,485,33.84
141197,483,34.16
141212,483,34.48
141227,481,34.80
141242,493,34.48
141257,493,32.55
141272,499,33.84
141287,498,34.48
141302,500,33.52
141317,502,34.80
141332,491,34.48
141347,487,34.80
141362,496,34.80
141378,488,33.84
141393,496,34.80
141408,488,33.52
141423,494,34.48
141438,492,34.80
141453,483,32.23
141469,490,34.48
141485,485,35.45
141500,487,33.19
141516,492,34.48
141531,496,34.16
141547,506,32.87
141563,519,33.19
141578,536,32.87
141593,554,34.48
141608,569,33.52
141624,571,33.52
141639,580,33.19
141654,571,33.52
141669,574,34.16
141685,558,34.80
141701,554,33.19
141716,542,34.16
141732,533,34.48
141748,522,33.19
141763,509,34.80
141779,505,34.16
141794,499,34.80
141810,494,34.80
141826,489,33.52
141842,487,34.48
141858,490,34.48
141874,482,33.19
141889,493,34.48
141905,495,34.16
141921,497,34.80
141937,498,34.80
141953,497,32.55
141969,501,36.09
141984,495,34.48
142000,500,33.84
142016,501,32.23
142032,495,33.52
142048,490,32.87
142064,493,34.16
142080,488,32.87
142096,493,33.52
142112,492,34.16
142127,490,34.80
142143,497,34.16
142159,488,34.16
142174,491,32.87
142190,499,34.48
142206,501,34.48
142221,510,34.16
142236,515,34.80
142252,534,33.52
142268,544,34.48
142283,551,33.19
142299,561,34.80
142315,566,33.19
142331,561,34.48
142346,561,33.19
142361,559,34.48
142377,536,34.80
142393,544,34.16
142409,535,34.48
142424,524,33.52
142440,514,34.80
142455,503,33.84
142471,504,32.87
142486,500,33.52
142502,493,32.87
142518,490,33.84
142533,497,35.13
142549,504,34.48
142565,510,33.52
142580,514,34.16
142596,515,34.48
142611,516,33.19
142627,508,34.80
142643,504,34.48
142658,496,34.80
142674,497,33.52
142689,493,34.48
142704,483,33.52
142719,493,34.16
142734,491,33.52
142749,489,34.16
142765,495,34.16
142780,497,34.80
142795,498,34.48
142810,494,34.48
142825,503,34.48
142840,506,34.80
142855,511,33.19
142870,513,33.19
142885,520,34.48
142900,528,34.80
142915,540,34.80
142930,549,34.80
142945,560,34.48
142960,563,33.19
142975,562,34.48
142990,562,34.16
143005,556,34.16
143020,545,34.80
143035,539,34.48
143050,524,34.48
143065,522,33.84
143080,513,34.80
143095,504,32.87
143110,492,33.84
143125,489,34.48
143140,489,34.80
143155,488,34.48
143170,477,32.87
143185,482,34.80
143200,481,33.19
143215,485,34.48
143230,479,32.55
143245,483,33.19
143260,488,33.19
143275,487,33.19
143290,490,34.48
143305,484,33.52
143320,490,34.16
143335,494,33.52
143350,497,33.52
143365,502,33.84
143380,503,34.80
143395,496,34.48
143410,495,34.48
143425,503,34.48
143440,506,33.52
143455,493,34.80
143470,496,35.13
143485,489,33.19
143500,485,33.84
143515,488,32.55
143530,484,34.16
143545,500,34.48
143560,511,34.48
143575,530,34.48
143590,544,34.80
143605,563,34.48
143620,571,34.48
143635,576,34.48
143650,570,34.80
143666,563,33.52
143681,559,32.87
143697,548,34.16
143712,536,34.80
143727,519,34.48
143742,510,34.80
143757,501,33.19
143772,498,34.48
143787,486,34.80
143802,490,34.48
143817,477,34.16
143832,484,34.48
143847,483,34.80
143862,475,34.80
143878,486,34.48
143893,485,34.48
143908,495,34.80
143923,497,34.48
143938,494,34.80
143953,503,34.16
143969,496,34.80
143985,502,34.80
144000,503,34.48
144016,494,34.48
144031,497,34.80
144047,494,33.52
144063,494,34.48
144078,495,34.48
144094,492,35.13
144110,489,32.87
144126,491,33.19
144142,493,35.13
144158,491,34.48
144173,492,33.52
144189,486,34.48
144205,503,34.16
144221,511,33.84
144237,534,33.19
144253,553,34.48
144268,556,34.48
144284,568,34.48
144300,570,34.80
144315,574,34.16
144331,562,32.87
144347,551,33.19
144363,539,35.13
144379,529,33.19
144395,524,35.13
144410,509,33.19
144426,496,34.48
144442,498,34.48
144458,489,33.84
144474,483,34.48
144490,488,32.55
144506,487,34.48
144522,490,34.80
144538,493,34.80
144554,498,34.16
144570,501,34.80
144586,507,34.16
144602,508,33.84
144618,501,34.80
144634,506,32.87
144650,501,32.87
144665,506,35.13
144681,500,33.19
144696,495,33.52
144712,495,33.52
144728,495,34.16
144743,487,34.80
144759,489,33.19
144774,493,32.55
144790,494,33.19
144806,494,34.48
144822,498,33.19
144838,504,34.48
144854,513,32.87
144870,531,33.84
144885,547,34.48
144900,561,35.13
144915,561,34.48
144930,572,33.52
144946,572,34.48
144962,555,35.13
144977,558,34.48
144993,542,33.19
145008,535,34.80
145023,526,32.87
145039,516,34.48
145054,508,33.19
145070,494,34.80
145085,493,34.48
145101,486,33.19
145117,486,34.80
145132,486,34.48
145148,488,34.16
145163,487,34.48
145178,488,34.80
145193,491,33.52
145209,502,33.19
145225,495,33.84
145240,510,34.48
145255,502,34.80
145270,507,34.16
145285,499,34.48
145300,499,34.80
145315,495,34.48
145330,499,34.16
145345,493,33.52
145360,492,34.80
145375,489,34.80
145390,493,34.16
145405,489,34.80
145420,495,35.13
145435,487,34.80
145450,492,33.52
145465,497,34.16
145480,503,34.16
145495,515,32.87
145510,531,34.48
145525,545,34.80
145540,560,33.52
145555,570,33.52
145570,577,34.16
145585,575,34.80
145600,567,32.55
145615,549,33.52
145630,548,34.80
145645,537,34.16
145660,522,34.16
145675,518,33.19
145690,514,33.84
145705,497,32.55
145720,497,32.87
145735,486,34.16
145750,483,34.80
145765,489,35.45
145780,478,33.84
145795,488,34.48
145810,491,33.84
145825,500,34.80
145840,497,33.19
145855,500,34.80
145870,504,32.87
145885,506,34.80
145900,500,34.16
145915,506,34.48
145930,503,34.48
145945,494,33.84
145960,495,33.52
145975,501,32.87
145990,496,34.80
146005,497,32.87
146020,496,34.16
146035,497,33.84
146050,487,33.84
146065,485,33.19
146080,492,33.84
146095,494,34.80
146110,502,34.48
146125,511,34.16
146140,524,33.19
146155,534,34.80
146170,550,33.84
146185,561,33.19
146200,569,34.48
146215,571,34.80
146230,570,34.80
146245,558,35.13
146260,558,35.45
146275,543,33.19
146290,534,34.80
146305,530,34.80
146320,521,34.48
146335,510,33.52
146350,499,33.84
146365,497,34.48
146380,490,34.80
146395,486,33.84
146410,489,34.16
146425,484,33.52
146440,491,33.84
146456,499,35.13
146472,500,34.48
146487,500,34.80
146503,498,33.84
146518,507,34.80
146533,507,35.13
146548,506,34.16
146563,504,34.80
146578,504,33.19
146594,502,34.16
146610,493,32.87
146625,499,34.48
146641,492,34.80
146656,493,33.19
146672,494,34.16
146688,492,33.84
146704,486,33.84
146719,488,34.48
146735,495,34.80
146750,496,34.48
146766,502,34.48
146781,508,33.52
146797,528,34.80
146812,545,34.48
146828,562,34.80
146844,573,32.55
146860,576,34.80
146875,578,34.80
146891,573,34.80
146907,565,35.13
146923,554,34.48
146939,538,34.16
146954,524,34.48
146970,519,34.80
146986,507,33.52
147001,507,34.48
147017,490,34.80
147032,491,34.80
147048,488,34.48
147064,481,33.52
147079,477,34.80
147095,487,33.19
147111,488,32.87
147126,498,33.84
147142,495,35.13
147157,500,34.48
147173,511,34.48
147188,508,32.87
147204,510,34.16
147220,508,33.19
147236,499,34.48
147252,506,32.87
147268,502,32.87
147283,497,34.80
147299,494,34.48
147315,496,32.87
147330,494,34.80
147346,485,34.48
147361,491,34.80
147377,493,33.19
147393,490,34.80
147408,504,33.84
147424,512,33.19
147439,533,34.80
147454,546,34.48
147470,562,34.48
147485,565,34.16
147501,568,33.52
147516,572,34.80
147532,567,34.48
147548,555,34.48
147563,547,32.87
147579,528,34.48
147594,523,33.19
147609,513,34.80
147624,512,34.48
147640,496,34.48
147656,490,35.13
147671,491,33.19
147686,488,32.87
147701,488,29.97
147716,484,32.87
147731,487,34.80
147746,498,34.48
147761,497,33.52
147776,503,33.52
147791,507,35.13
147806,509,34.48
147821,499,33.19
147836,507,32.87
147851,499,34.80
147866,506,34.16
147881,502,34.48
147896,498,33.84
147911,491,34.80
147926,499,32.23
147941,497,33.19
147956,496,34.48
147971,494,32.87
147986,494,34.48
148001,486,34.80
148016,494,34.48
148031,496,34.48
148046,503,33.52
148061,514,34.80
148076,528,34.48
148091,547,34.48
148106,558,33.52
148121,566,32.55
148136,572,34.16
148151,574,34.48
148166,564,33.19
148181,550,34.80
148196,552,34.48
148211,537,34.48
148226,532,34.80
148241,524,34.48
148256,520,33.84
148271,509,34.48
148286,502,34.16
148301,495,35.13
148316,488,32.55
148331,490,33.84
148346,486,34.80
148361,490,34.80
148376,484,34.48
148391,496,34.48
148406,499,33.52
148421,504,34.80
148436,499,32.87
148451,506,34.80
148466,508,34.48
148481,505,35.13
148496,508,33.19
148511,513,34.16
148526,497,34.48
148541,503,33.19
148556,494,34.48
148571,493,34.48
148586,496,34.16
148601,496,34.48
148616,493,33.52
148631,490,34.80
148646,494,33.84
148661,485,33.84
148676,507,34.80
148691,503,34.80
148706,515,34.16
148721,529,34.48
148736,535,34.80
148751,551,34.80
148766,562,33.52
148781,568,34.80
148796,567,32.87
148811,565,34.48
148826,566,34.16
148841,549,34.80
148856,546,34.16
148871,531,35.45
148886,525,34.16
148901,515,33.19
148916,505,33.19
148931,495,33.52
148946,494,34.80
148961,486,34.80
148977,491,34.16
148992,486,30.29
149007,492,33.84
149022,487,34.80
149037,496,33.19
149052,500,34.80
149068,503,33.52
149083,496,33.19
149098,508,34.16
149113,507,34.48
149128,501,34.48
149143,505,33.84
149158,507,33.84
149173,507,33.84
149188,504,34.80
149203,495,34.16
149218,498,34.48
149233,495,34.48
149248,494,33.52
149263,486,33.19
149278,486,34.80
149293,487,32.87
149309,487,34.48
149324,491,34.16
149339,496,32.55
149354,495,33.19
149369,514,34.16
149385,530,33.19
149400,545,34.16
149416,558,34.48
149431,561,35.13
149446,574,34.80
149461,566,34.80
149477,568,34.48
149492,558,35.13
149507,545,34.16
149522,535,33.19
149538,531,34.16
149553,520,34.80
149568,512,32.87
149583,501,33.19
149598,494,33.19
149613,489,32.55
149629,480,34.80
149645,485,33.19
149661,484,33.84
149677,490,34.16
149693,492,34.48
149708,500,34.48
149723,503,34.16
149739,508,34.48
149755,510,35.45
149771,509,34.48
149787,509,34.48
149803,502,34.48
149819,497,34.80
149834,497,33.52
149850,502,34.16
149866,495,34.80
149881,490,32.87
149897,493,35.13
149913,492,34.48
149928,493,34.80
149944,496,34.16
149959,486,34.16
149975,488,33.19
149991,491,34.48
150006,501,33.19
150022,509,34.48
150037,518,35.13
150053,533,33.52
150068,555,34.16
150083,561,33.19
150098,567,34.48
150114,569,34.48
150129,566,33.19
150144,560,33.52
150159,549,33.52
150174,535,33.52
150189,533,34.80
150204,521,34.48
150219,512,33.19
150234,505,32.87
150249,498,33.19
150265,489,33.19
150281,482,34.80
150296,480,32.87
150312,485,34.48
150327,482,34.48
150342,493,34.80
150357,498,34.48
150372,503,33.19
150387,506,35.13
150402,507,35.77
150417,495,34.16
150433,502,33.19
150448,500,34.48
150463,503,34.48
150478,498,32.87
150493,497,33.52
150508,491,33.84
150523,498,33.19
150538,499,34.80
150553,499,34.48
150568,495,34.80
150583,493,34.16
150598,495,34.16
150614,488,32.87
150629,486,34.16
150644,489,34.48
150659,495,35.45
150674,514,34.48
150689,532,34.48
150704,543,33.19
150719,555,34.16
150734,565,34.48
150749,568,34.80
150764,565,33.84
150779,567,34.16
150794,560,34.80
150809,550,32.87
150824,537,32.87
150839,527,33.84
150854,524,33.19
150869,512,35.13
150884,506,34.48
150899,501,33.84
150914,491,34.80
150929,479,34.80
150944,483,32.55
150959,479,34.16
150974,491,34.48
150989,495,34.48
151004,497,34.80
151019,499,34.80
151034,504,34.80
151049,499,34.16
151064,507,34.48
151079,508,34.16
151094,505,34.48
151109,506,34.48
151124,505,34.48
151139,499,34.48
151154,502,34.48
151169,499,34.48
151184,498,32.55
151199,497,34.80
151214,490,32.87
151229,491,34.48
151244,486,34.80
151259,493,34.48
151274,495,31.58
151289,490,33.84
151304,494,33.52
151319,515,34.48
151334,516,33.19
151349,537,34.48
151364,555,34.80
151379,563,34.48
151394,564,33.19
151409,573,32.23
151424,573,34.48
151439,558,34.48
151454,555,34.48
151469,548,32.87
151484,538,34.48
151499,522,33.84
151514,520,33.52
151529,509,34.48
151544,499,34.16
151559,491,33.84
151574,496,34.48
151589,494,33.52
151604,486,34.48
151619,490,33.19
151634,492,35.13
151649,484,35.13
151664,499,33.52
151679,498,34.80
151694,501,32.87
151709,500,34.80
151724,501,34.48
151739,509,33.84
151754,508,33.19
151769,506,34.48
151784,505,34.48
151799,501,32.87
151814,500,34.80
151829,489,34.80
151844,494,33.19
151859,493,34.48
151874,496,34.48
151889,496,32.87
151904,496,33.52
151919,496,33.52
151934,487,34.48
151949,493,34.48
151964,500,33.19
151979,506,32.87
151994,518,34.48
152009,542,34.80
152024,554,33.84
152039,569,34.80
152054,571,32.55
152069,574,35.13
152084,566,33.19
152099,564,34.80
152114,556,34.80
152129,546,34.48
152144,537,34.80
152159,527,33.52
152174,514,34.48
152189,512,35.13
152204,506,34.80
152219,503,33.52
152234,498,34.80
152249,487,34.80
152264,493,34.48
152279,485,33.19
152294,486,33.52
152309,498,33.84
152324,500,34.16
152339,506,33.84
152354,507,34.48
152369,509,34.80
152384,507,33.19
152399,507,34.80
152414,508,34.80
152429,497,33.84
152444,495,33.84
152459,494,34.80
152474,495,34.80
152489,502,34.48
152504,491,32.87
152519,498,35.13
152534,494,33.52
152549,493,34.80
152564,495,34.16
152579,493,34.80
152594,485,33.19
152609,489,33.19
152624,503,34.80
152639,507,34.48
152654,514,34.48
152669,541,34.48
152684,553,34.80
152699,564,34.48
152714,567,34.48
152729,572,34.48
152744,569,33.52
152759,557,34.80
152774,553,32.87
152789,549,34.48
152804,536,34.48
152819,529,34.48
152834,512,35.13
152849,510,35.13
152864,503,33.84
152879,491,33.19
152894,491,34.48
152909,487,32.87
152924,490,34.48
152939,490,34.16
152954,488,33.84
152969,498,33.19
152984,499,34.80
152999,505,34.80
153014,507,34.48
153029,500,34.48
153044,505,33.84
153059,508,34.16
153074,506,34.48
153089,500,33.19
153104,505,34.16
153119,504,34.16
153134,500,34.80
153149,499,34.48
153164,500,34.16
153179,495,34.80
153194,498,33.84
153209,496,33.52
153224,499,34.80
153239,500,34.16
153254,497,34.48
153269,511,34.48
153284,506,34.48
153299,522,34.16
153314,540,33.52
153329,554,33.19
153344,555,34.80
153359,561,34.48
153374,570,34.80
153389,568,34.48
153404,562,34.48
153419,554,34.48
153434,533,34.16
153449,524,34.48
153464,517,34.48
153479,514,33.19
153494,498,34.80
153509,498,33.52
153524,488,34.16
153539,495,34.16
153554,488,32.87
153569,487,32.55
153584,493,34.80
153599,494,34.80
153614,496,33.84
153629,493,34.48
153644,503,33.19
153659,503,34.80
153674,509,34.80
153689,502,33.84
153704,509,34.80
153719,502,34.80
153734,506,33.52
153749,502,32.55
153764,502,34.48
153779,500,35.13
153794,496,34.48
153809,489,34.80
153824,496,34.48
153839,495,35.13
153854,497,31.58
153869,496,33.19
153884,498,34.48
153899,500,34.80
153914,498,34.48
153929,509,34.48
153944,520,34.80
153959,539,34.80
153974,555,33.19
153989,570,34.48
154004,573,34.80
154019,572,34.80
154034,561,34.80
154049,561,33.52
154064,544,33.84
154079,540,34.48
154094,534,34.48
154109,525,34.48
154124,517,34.48
154139,509,34.16
154154,503,33.52
154169,500,34.48
154184,496,34.80
154199,495,34.48
154214,482,34.48
154229,489,34.16
154244,493,33.84
154259,495,33.84
154274,493,33.84
154289,505,33.84
154304,508,34.80
154319,505,32.87
154334,503,33.84
154349,507,34.16
154364,507,34.48
154379,501,34.48
154394,492,34.16
154409,500,33.19
154424,492,34.16
154439,494,33.19
154454,493,34.80
154469,491,34.16
154484,500,34.48
154499,490,33.52
154514,493,34.80
154529,495,34.16
154544,497,32.87
154559,501,33.19
154574,512,34.48
154589,529,34.16
154604,543,33.52
154619,559,34.80
154634,559,34.80
154649,565,34.80
154664,569,33.52
154679,562,33.52
154694,558,32.87
154709,550,33.52
154724,542,33.19
154739,536,34.48
154754,527,33.52
154769,516,34.48
154784,512,35.13
154799,506,34.80
154814,497,34.80
154829,491,33.84
154844,486,34.80
154859,488,33.52
154874,492,34.48
154889,495,34.48
154904,494,33.19
154919,499,33.52
154934,503,34.80
154949,502,33.19
154964,505,34.80
154979,500,34.16
154994,502,33.52
155009,497,33.84
155024,501,33.19
155039,494,34.48
155054,499,34.80
155069,489,34.48
155084,490,34.16
155099,498,34.48
155114,495,33.19
155129,493,33.19
155144,489,34.80
155159,492,34.80
155174,495,34.16
155189,487,34.48
155204,493,32.87
155219,503,34.48
155234,519,34.16
155249,536,34.16
155264,542,33.84
155279,561,33.52
155294,561,33.19
155309,569,33.52
155324,567,35.13
155339,556,34.80
155354,554,33.19
155369,545,34.80
155384,537,32.55
155399,519,34.48
155414,518,34.48
155429,509,33.84
155444,497,34.16
155459,495,34.16
155474,493,33.52
155489,489,33.19
155504,487,34.48
155519,489,34.48
155534,491,34.16
155549,494,33.84
155564,493,34.48
155579,497,34.80
155594,499,35.13
155609,503,34.16
155624,504,34.48
155639,510,34.48
155654,509,34.80
155669,507,34.48
155684,502,33.52
155699,499,34.48
155714,498,34.80
155729,494,34.80
155744,490,33.19
155759,491,34.48
155774,494,34.48
155789,490,34.48
155804,497,34.80
155819,490,34.16
155834,491,33.19
155849,502,34.80
155864,507,32.87
155879,523,34.80
155894,538,34.16
155909,549,34.48
155924,562,34.48
155939,562,33.19
155954,569,34.80
155969,567,33.52
155984,550,34.16
155999,553,33.19
156014,539,34.16
156029,530,33.52
156044,520,33.52
156059,510,33.52
156074,505,35.13
156089,498,33.52
156104,494,34.16
156119,493,34.48
156134,484,34.80
156149,482,34.16
156164,491,34.48
156179,498,34.48
156194,496,33.84
156209,500,32.55
156224,501,33.84
156239,509,34.80
156254,502,34.48
156269,509,34.48
156284,505,35.45
156299,500,34.48
156314,501,34.48
156329,501,32.87
156344,497,33.52
156359,502,34.48
156374,497,34.80
156389,490,33.19
156404,500,34.48
156419,492,33.52
156434,488,34.48
156449,497,34.48
156464,494,34.48
156479,498,35.45
156494,495,33.19
156509,514,34.48
156524,525,33.52
156539,544,33.52
156554,552,34.48
156569,562,34.48
156584,565,33.52
156599,572,34.48
156614,566,34.48
156629,555,34.80
156644,546,34.16
156659,538,33.84
156674,528,34.16
156689,524,33.52
156704,513,34.80
156719,510,35.13
156734,500,33.84
156749,496,34.80
156764,486,33.19
156779,484,32.87
156794,487,34.48
156809,490,35.45
156824,491,34.48
156839,494,33.52
156854,503,34.16
156869,502,33.19
156884,507,34.48
156899,507,34.16
156914,501,34.80
156929,507,34.48
156944,504,34.80
156959,496,33.52
156974,501,34.80
156989,497,34.80
157004,502,34.48
157019,499,34.80
157034,499,33.19
157049,492,34.80
157064,490,34.80
157079,495,34.80
157094,494,34.80
157109,492,33.19
157124,496,32.87
157139,499,33.19
157154,508,34.16
157169,515,33.19
157184,537,34.80
157199,550,34.16
157214,557,33.84
157229,562,33.19
157244,571,35.13
157259,568,34.80
157274,566,34.16
157289,550,34.80
157304,551,33.19
157319,539,34.48
157334,531,34.48
157349,514,34.16
157364,509,32.87
157379,501,32.55
157394,495,34.80
157409,492,34.48
157424,489,34.80
157439,489,34.48
157454,485,32.87
157469,491,32.87
157484,487,33.52
157499,497,33.52
157514,499,34.48
157529,501,34.48
