604217,738,33.52
604233,727,33.52
604248,729,32.55
604263,730,33.19
604278,741,33.52
604293,740,33.84
604308,748,32.87
604323,746,33.52
604338,747,33.52
604353,750,33.19
604368,751,32.87
604383,755,33.84
604398,752,33.52
604413,750,33.19
604428,749,32.87
604443,750,33.19
604458,749,33.19
604473,742,32.55
604488,741,32.87
604503,729,33.52
604518,731,33.19
604533,730,33.19
604548,738,33.84
604563,753,32.87
604578,766,33.19
604593,777,33.52
604608,797,33.19
604623,806,33.52
604638,814,33.19
604653,817,33.19
604668,817,33.19
604683,808,33.19
604698,804,33.19
604713,798,32.87
604728,794,32.55
604743,785,33.52
604758,775,33.84
604773,763,33.52
604788,747,33.19
604803,730,32.23
604818,716,32.23
604833,707,33.52
604848,699,33.19
604863,693,32.23
604878,690,32.87
604893,693,32.55
604908,690,33.19
604923,693,32.55
604938,701,33.19
604953,711,32.87
604968,719,32.87
604983,728,33.19
604998,733,32.87
605013,739,32.87
605028,748,32.87
605043,752,32.87
605058,749,33.52
605073,750,33.19
605088,747,32.55
605103,741,33.52
605118,742,33.19
605133,742,33.19
605148,747,33.84
605163,758,33.52
605178,770,33.52
605193,775,32.55
605208,779,33.19
605223,781,33.84
605238,796,33.52
605253,797,33.52
605268,795,33.52
605283,796,32.55
605298,798,32.55
605313,794,32.87
605328,793,32.87
605343,791,32.87
605358,786,32.55
605373,779,33.19
605388,762,33.52
605403,751,32.87
605418,738,32.23
605433,732,32.87
605448,729,32.55
605463,738,33.52
605478,743,32.23
605493,751,32.55
605508,749,33.52
605523,744,32.23
605538,736,32.87
605553,727,33.19
605568,717,32.55
605583,716,33.52
605598,714,33.19
605613,721,33.19
605628,721,32.55
605643,729,33.19
605658,735,33.52
605673,740,32.55
605688,742,32.55
605703,743,33.19
605718,743,32.55
605733,740,32.23
605748,741,33.84
605763,745,32.55
605778,751,33.52
605793,765,32.55
605808,779,33.19
605823,786,33.19
605838,785,32.55
605853,792,32.55
605868,786,32.55
605883,781,33.19
605898,778,32.55
605913,772,33.19
605928,776,33.19
605943,778,33.52
605958,770,32.87
605973,767,33.19
605988,760,33.52
606003,753,33.52
606018,748,32.55
606033,743,32.55
606048,741,33.19
606063,740,32.87
606078,740,33.19
606093,739,32.87
606108,742,32.87
606123,742,32.55
606138,743,32.55
606153,744,33.52
606168,747,32.87
606183,748,33.19
606198,754,33.19
606213,752,32.23
606228,754,33.19
606243,749,33.19
606258,744,33.19
606273,741,33.19
606288,738,33.52
606303,732,32.23
606318,733,33.52
606333,732,32.55
606348,731,33.52
606363,741,33.52
606378,755,33.52
606393,773,33.52
606408,786,32.87
606423,795,33.52
606438,802,33.19
606453,805,32.55
606468,805,32.55
606483,801,33.52
606498,793,33.19
606513,790,33.84
606528,783,33.19
606543,778,34.48
606558,768,32.87
606573,757,33.19
606588,750,33.19
606603,741,33.52
606618,738,33.52
606633,737,32.87
606648,738,32.87
606663,742,33.19
606678,743,32.87
606693,743,32.55
606708,744,32.55
606723,739,32.23
606738,736,33.52
606753,733,32.87
606768,735,33.52
606783,737,33.52
606798,736,33.19
606813,739,32.55
606828,739,32.55
606843,739,32.55
606858,734,33.84
606873,734,32.87
606888,736,33.19
606903,733,33.19
606918,737,33.19
606933,742,32.87
606948,757,33.19
606963,768,33.52
606978,784,32.87
606993,797,33.52
607008,807,32.87
607023,811,33.52
607038,811,33.84
607053,809,33.19
607068,805,31.90
607083,800,33.19
607098,795,33.19
607113,789,33.19
607128,779,32.87
607143,769,33.84
607158,761,32.87
607173,750,32.87
607188,743,32.87
607203,739,33.52
607218,742,32.55
607233,740,32.55
607248,743,33.19
607263,740,33.52
607278,746,33.19
607293,747,32.55
607308,748,33.52
607323,743,33.52
607338,740,32.55
607353,739,33.52
607368,742,32.87
607383,741,31.90
607398,739,33.19
607413,738,32.87
607428,736,33.84
607443,737,33.19
607458,741,32.87
607473,738,33.19
607488,735,33.19
607503,741,32.87
607518,758,32.87
607533,769,32.23
607548,787,33.19
607563,801,32.23
607578,813,32.55
607593,819,33.84
607608,817,32.87
607623,813,33.19
607638,807,33.52
607653,803,33.52
607668,797,32.87
607683,790,32.55
607698,782,32.87
607713,780,33.52
607728,767,32.87
607743,758,32.55
607758,752,33.84
607773,743,32.55
607788,744,33.19
607803,741,32.87
607818,740,33.52
607833,744,33.52
607848,746,33.19
607863,749,33.19
607878,749,33.19
607893,747,32.55
607908,741,32.23
607923,743,33.19
607938,742,33.84
607953,742,33.19
607968,737,32.55
607983,736,31.26
607998,738,33.52
608013,737,33.19
608029,734,32.55
608044,738,32.23
608059,741,33.19
608074,749,33.19
608089,758,32.23
608104,771,32.87
608120,791,33.19
608136,799,33.52
608151,814,33.52
608167,813,33.19
608182,816,32.87
608198,812,32.55
608214,807,33.52
608229,801,33.19
608245,793,33.19
608261,783,33.52
608277,773,33.84
608293,762,33.19
608309,756,33.19
608324,747,32.87
608340,743,32.87
608356,743,33.19
608372,741,33.52
608388,743,33.19
608404,748,33.19
608419,744,32.87
608435,741,32.87
608451,746,32.87
608467,744,33.52
608483,744,33.52
608499,740,32.87
608515,746,33.19
608531,742,33.52
608547,745,33.19
608563,743,32.87
608579,740,33.19
608595,741,33.19
608611,744,33.52
608627,750,33.19
608643,754,33.19
608659,765,32.55
608675,778,33.19
608691,790,33.52
608707,800,32.23
608723,809,32.87
608739,812,33.52
608755,811,32.55
608771,806,32.23
608786,797,32.55
608802,793,32.23
608818,783,32.87
608834,774,32.87
608850,768,33.19
608866,754,33.19
608881,745,32.55
608897,746,33.19
608913,743,32.23
608928,745,32.55
608944,745,33.19
608959,745,33.19
608975,743,33.19
608991,744,32.55
609006,739,32.87
609022,738,32.23
609037,741,33.19
609053,739,33.84
609069,737,33.19
609084,738,32.55
609100,737,32.23
609115,739,32.55
609131,738,32.55
609147,738,33.52
609162,739,32.87
609178,742,33.84
609193,744,33.19
609209,750,33.52
609225,759,32.87
609240,765,32.87
609256,780,33.52
609271,789,32.87
609286,790,33.52
609301,797,33.52
609316,809,33.19
609331,805,33.52
609346,805,32.55
609361,800,32.23
609377,791,33.19
609392,781,32.87
609407,764,33.84
609422,762,32.87
609437,753,33.19
609452,745,33.84
609467,745,32.87
609482,739,32.87
609497,741,32.55
609512,742,32.87
609528,744,33.19
609543,744,33.19
609558,742,33.19
609573,743,33.52
609588,732,33.52
609603,742,33.19
609618,737,32.23
609633,739,33.19
609648,742,33.19
609663,747,33.19
609678,741,33.19
609693,737,33.19
609708,733,33.19
609723,733,33.52
609738,732,32.55
609753,731,33.19
609768,735,33.52
609783,743,33.19
609798,756,33.19
609813,769,33.19
609828,780,33.52
609843,791,33.19
609858,793,33.19
609873,790,32.23
609888,796,32.55
609903,795,33.52
609918,790,33.84
609933,786,33.19
609948,777,33.19
609963,773,33.19
609978,762,32.87
609993,753,32.87
610008,750,33.19
610023,743,33.84
610038,741,32.87
610053,743,33.19
610068,730,32.55
610083,740,32.23
610098,744,33.84
610113,747,33.52
610128,752,32.87
610143,747,33.52
610158,741,33.19
610173,738,31.90
610188,732,33.52
610203,732,33.19
610218,731,32.87
610233,733,32.87
610248,733,34.16
610263,738,33.19
610278,732,33.52
610293,734,32.87
610308,729,32.55
610323,732,32.87
610338,732,33.19
610353,743,33.19
610369,754,32.55
610384,761,33.19
610399,774,32.55
610414,781,32.87
610429,787,32.87
610444,789,33.52
610460,791,34.80
610475,788,33.19
610490,781,33.84
610505,776,32.55
610520,768,33.19
610535,762,33.52
610551,754,32.23
610567,746,33.19
610582,744,32.87
610598,739,32.87
610613,743,33.19
610629,740,33.19
610645,740,33.52
610660,740,32.87
610676,735,33.19
610692,739,32.87
610707,734,32.87
610723,733,32.55
610738,728,32.55
610754,731,32.87
610770,730,31.90
610785,732,32.23
610801,730,32.23
610817,735,33.84
610832,730,32.23
610848,733,33.19
610863,731,33.19
610879,734,32.87
610895,736,32.87
610911,744,32.87
610927,754,32.87
610943,762,32.55
610958,768,33.19
610974,774,33.19
610990,776,32.55
611005,778,33.19
611021,773,32.23
611037,772,31.90
611053,770,34.16
611069,767,33.52
611085,759,32.55
611101,755,33.19
611117,750,33.19
611133,748,33.52
611148,742,32.55
611164,739,32.87
611180,739,32.23
611196,740,33.52
611212,744,33.52
611228,745,32.23
611243,746,33.19
611259,741,33.52
611275,734,33.52
611290,731,33.84
611306,729,32.23
611321,729,33.19
611337,730,31.90
611353,733,33.19
611368,733,32.87
611384,734,32.55
611400,735,32.23
611415,738,32.87
611431,738,33.19
611446,737,33.52
611462,741,31.26
611478,742,33.19
611493,752,32.87
611509,759,32.55
611524,763,33.19
611540,768,32.23
611555,775,33.19
611571,776,32.87
611587,781,33.19
611602,778,32.87
611618,774,32.87
611633,774,32.87
611648,769,33.84
611663,765,32.87
611678,761,33.19
611693,751,32.87
611709,744,32.23
611725,740,33.19
611740,739,33.52
611756,737,33.52
611771,734,33.19
611786,740,33.19
611801,743,33.19
611816,748,33.19
611831,749,33.19
611846,750,33.52
611861,746,33.19
611877,745,33.19
611892,742,33.52
611907,740,34.16
611922,742,32.87
611937,740,33.19
611952,736,32.55
611967,737,32.23
611982,740,33.19
611997,740,32.55
612012,743,33.52
612027,741,32.87
612042,742,32.87
612057,745,32.23
612072,753,32.87
612087,759,33.19
612102,768,32.87
612117,774,33.52
612132,783,32.87
612147,784,33.52
612162,785,33.52
612177,782,32.87
612192,779,32.87
612207,771,33.19
612222,765,33.19
612237,760,32.87
612252,757,33.19
612267,753,33.52
612282,749,32.87
612297,748,33.84
612312,748,33.19
612327,746,33.19
612342,741,32.55
612357,742,32.55
612372,740,32.87
612387,741,32.23
612402,739,34.48
612417,746,32.55
612432,749,33.19
612447,749,32.87
612462,752,32.87
612477,748,33.19
612492,746,32.87
612507,744,32.55
612522,740,34.16
612537,740,32.55
612552,741,32.23
612567,746,33.19
612582,752,33.52
612597,752,32.55
612612,761,32.23
612627,766,34.16
612642,768,32.55
612658,782,33.19
612673,791,33.19
612688,788,33.19
612703,792,32.23
612718,794,33.19
612733,793,33.19
612749,792,33.52
612764,795,32.87
612779,790,32.87
612794,787,33.52
612809,773,31.90
612824,768,33.52
612839,763,32.87
612854,759,33.52
612869,756,32.23
612884,756,33.52
612900,756,33.19
612916,755,32.55
612931,753,33.19
612947,758,33.52
612962,762,30.62
612978,758,32.55
612994,763,33.84
613009,758,32.87
613025,757,33.52
613041,753,33.19
613056,752,33.19
613072,748,33.19
613087,747,33.19
613103,748,31.90
613119,747,33.19
613134,754,33.52
613150,756,33.52
613166,764,31.90
613181,779,32.87
613197,791,32.55
613212,802,32.87
613228,813,32.23
613244,819,33.52
613260,820,33.52
613276,823,33.19
613292,817,32.87
613308,813,33.52
613324,814,32.23
613340,805,33.19
613356,793,33.52
613372,787,32.87
613388,778,33.52
613404,776,33.52
613420,771,33.19
613436,766,32.87
613452,771,33.19
613468,768,32.55
613484,768,33.19
613500,769,32.87
613516,771,33.19
613532,771,33.19
613548,770,33.52
613564,769,33.52
613579,773,33.52
613595,768,33.19
613611,766,33.19
613627,761,33.52
613643,759,32.55
613659,755,33.84
613674,753,33.52
613690,750,33.52
613705,757,33.19
613721,769,33.19
613737,783,32.87
613752,801,33.19
613768,819,33.19
613783,832,33.52
613799,845,33.52
613815,848,32.87
613830,854,33.84
613846,845,32.23
613862,840,33.84
613877,827,33.19
613893,812,33.19
613908,808,33.52
613924,797,32.55
613940,786,32.87
613955,776,33.19
613971,769,32.23
613986,764,33.19
614002,762,32.87
614018,763,33.19
614033,763,32.87
614048,769,33.19
614063,768,33.19
614079,770,32.55
614094,769,32.87
614109,763,33.19
614124,764,33.19
614140,760,33.52
614155,757,32.87
614170,757,33.19
614185,757,32.55
614200,760,33.19
614215,759,33.19
614230,757,33.19
614245,753,32.55
614260,754,32.87
614275,756,33.52
614290,759,33.19
614305,768,33.52
614321,786,32.55
614336,803,33.19
614351,822,33.19
614366,838,33.19
614381,843,32.55
614396,847,32.87
614411,846,33.19
614426,838,32.87
614441,830,33.19
614456,821,33.52
614471,811,33.52
614486,798,32.87
614501,785,33.52
614516,779,32.87
614531,767,32.55
614546,764,33.52
614561,756,33.52
614576,752,32.55
614591,751,33.52
614606,752,32.55
614621,754,34.16
614636,760,32.55
614651,763,32.55
614666,765,32.87
614681,764,32.87
614696,763,32.23
614711,757,33.84
614726,752,32.23
614741,745,33.52
614756,746,32.23
614771,740,32.55
614786,744,33.19
614801,741,32.55
614816,745,32.87
614831,747,32.87
614846,750,33.84
614861,750,33.19
614876,762,33.19
614891,771,33.19
614906,790,33.19
614921,808,33.19
614936,822,32.87
614951,838,33.19
614966,844,33.19
614981,845,33.19
614996,840,33.19
615011,835,32.55
615026,822,32.23
615041,809,32.87
615056,797,31.90
615071,785,32.55
615086,774,32.55
615101,765,33.52
615116,759,32.87
615131,753,32.87
615146,754,31.90
615161,752,33.19
615176,752,33.52
615191,750,32.87
615206,748,33.19
615221,749,32.55
615236,754,33.19
615251,759,32.87
615266,754,33.52
615281,756,32.55
615296,752,33.52
615311,744,33.19
615326,743,33.19
615341,738,33.19
615356,736,32.55
615371,732,34.80
615386,731,32.87
615401,734,32.55
615416,738,32.87
615431,740,33.52
615446,753,33.19
615461,749,33.19
615476,764,32.87
615491,778,32.23
615506,792,32.87
615521,809,32.87
615536,820,33.52
615551,832,31.90
615566,834,33.19
615581,841,33.52
615596,833,33.52
615611,825,32.87
615626,813,32.55
615641,797,33.52
615656,785,33.19
615671,772,33.52
615686,762,32.55
615701,754,33.52
615716,746,32.55
615731,743,32.23
615746,744,32.87
615761,743,32.87
615776,744,33.19
615791,739,33.84
615806,741,33.84
615821,740,33.19
615836,743,33.19
615851,747,33.19
615866,749,32.55
615881,752,33.52
615896,747,32.87
615911,743,33.52
615926,739,31.90
615941,735,32.87
615956,735,32.87
615971,734,33.52
615986,729,32.23
616001,730,33.52
616016,729,33.19
616031,733,33.52
616046,729,32.55
616061,741,33.19
616076,748,32.55
616091,765,33.52
616106,778,32.55
616121,797,33.52
616136,812,32.87
616151,825,32.55
616166,831,32.55
616181,831,33.19
616196,826,32.87
616211,821,32.23
616226,809,32.87
616241,798,33.52
616256,784,33.19
616271,775,33.52
616286,765,32.23
616301,755,32.87
616316,749,32.23
616331,749,33.19
616346,744,32.55
616361,746,33.19
616376,739,32.87
616391,739,32.87
616406,741,33.19
616421,742,33.19
616436,740,32.55
616451,744,32.87
616466,744,33.19
616481,745,33.19
616497,746,33.19
616512,742,36.09
616527,741,32.23
616542,736,33.19
616557,735,33.19
616572,732,33.52
616587,729,32.87
616602,733,33.19
616617,736,32.87
616632,731,32.87
616647,733,32.87
616662,731,33.19
616677,732,32.87
616692,741,33.52
616707,751,32.87
616722,770,33.52
616737,786,33.19
616752,802,33.19
616767,814,33.19
616782,818,33.52
616797,828,32.55
616812,823,32.87
616827,813,33.19
616842,807,31.90
616857,801,32.87
616872,789,32.87
616887,780,32.87
616902,772,32.55
616917,763,33.52
616932,757,32.87
616947,749,32.55
616962,747,32.87
616977,740,32.55
616992,737,33.52
617007,736,32.87
617022,744,32.55
617037,747,33.19
617052,745,33.19
617067,745,32.55
617082,748,31.90
617097,749,33.19
617112,742,33.19
617127,744,32.23
617142,740,32.55
617157,740,31.90
617172,742,33.52
617187,736,32.87
617202,734,33.19
617217,738,32.87
617232,743,32.87
617247,734,33.19
617262,733,31.58
617277,733,33.84
617292,732,33.52
617307,735,33.52
617322,747,32.87
617337,759,33.19
617352,772,33.19
617367,791,33.19
617382,806,33.19
617397,814,32.55
617412,818,33.52
617427,818,32.55
617442,814,32.87
617457,807,33.19
617472,800,33.84
617487,794,32.87
617502,789,33.52
617517,780,32.55
617532,772,32.55
617547,765,32.55
617562,754,33.19
617577,744,34.48
617592,738,32.87
617607,740,32.87
617622,743,32.87
617637,742,33.52
617652,745,33.19
617667,744,32.55
617682,746,33.19
617697,750,33.19
617712,747,32.55
617727,746,33.52
617742,746,32.87
617757,742,32.55
617772,741,33.52
617787,741,33.19
617802,742,33.19
617817,741,33.19
617832,740,33.19
617847,737,32.55
617862,740,32.87
617877,734,32.55
617892,730,33.19
617907,729,32.87
617922,731,31.90
617937,742,32.55
617952,755,33.52
617967,778,33.52
617982,789,33.52
617997,805,32.87
618012,808,32.55
618027,812,33.84
618042,815,33.19
618057,811,33.19
618072,805,32.87
618087,803,33.19
618102,795,33.52
618117,788,32.23
618132,778,33.19
618147,766,32.87
618162,757,33.19
618177,751,33.52
618192,740,33.52
618207,738,32.87
618222,740,32.23
618237,745,33.19
618252,738,33.19
618267,750,33.52
618282,748,33.19
618297,749,32.55
618312,758,33.19
618327,749,34.16
618342,746,33.52
618357,749,33.19
618372,741,33.19
618387,741,32.87
618402,742,32.55
618417,740,32.23
618432,740,32.55
618447,740,32.23
618462,735,32.87
618477,734,33.19
618492,728,33.19
618507,728,33.52
618522,731,33.19
618537,736,32.87
618552,746,32.23
618567,760,33.19
618582,772,33.19
618597,788,33.52
618612,801,32.87
618627,810,32.55
618642,815,32.55
618657,817,32.87
618672,818,33.19
618687,813,33.52
618702,808,33.84
618718,803,33.84
618733,796,33.52
618748,782,31.90
618763,772,32.23
618778,760,32.87
618793,750,32.55
618809,747,34.16
618824,745,32.55
618839,745,33.52
618854,743,33.52
618869,745,32.23
618884,750,33.19
618900,756,33.19
618916,749,33.52
618931,749,32.87
618947,754,32.23
618962,751,33.19
618978,752,33.19
618994,756,32.55
619009,753,33.52
619025,748,33.19
619041,741,33.19
619056,738,33.19
619072,736,32.55
619087,736,33.52
619103,737,32.23
619119,739,32.87
619135,741,33.19
619151,747,32.87
619167,745,33.19
619182,750,33.19
619198,769,33.19
619214,781,33.19
619230,799,33.19
619246,809,33.84
619262,816,33.19
619278,816,33.19
619294,809,33.19
619310,798,32.23
619326,795,33.19
619342,777,33.52
619358,771,33.19
619374,753,33.52
619390,744,32.87
619406,737,32.55
619422,731,33.19
619438,730,33.52
619454,730,33.52
619470,736,32.23
619486,746,32.87
619502,754,33.19
619518,761,33.19
619534,756,33.84
619549,756,32.87
619565,751,33.19
619580,745,32.55
619596,740,32.87
619612,736,33.19
619627,740,33.52
619643,733,33.19
619659,733,32.87
619674,733,33.52
619690,734,32.87
619705,732,33.52
619721,732,32.87
619737,735,32.87
619752,743,33.52
619768,758,33.52
619783,773,33.52
619799,780,32.87
619814,795,33.84
619829,802,33.52
619845,812,33.19
619860,819,33.19
619876,825,33.52
619891,810,33.19
619907,806,34.16
619923,797,33.19
619938,788,32.23
619954,781,32.55
619969,777,33.52
619984,767,33.84
619999,761,33.19
620015,754,33.52
620030,749,32.55
620045,750,33.52
620060,742,33.84
620075,738,33.84
620090,739,32.87
620105,743,32.23
620120,747,32.23
620135,748,32.55
620150,753,33.19
620165,753,33.52
620180,749,32.23
620196,749,32.55
620211,748,32.55
620226,747,33.19
620241,743,33.19
620256,745,33.19
620271,743,33.19
620286,741,32.87
620301,736,33.52
620316,743,33.19
620331,747,33.52
620346,754,33.19
620361,759,32.87
620376,774,33.52
620391,784,32.87
620406,795,33.19
620421,805,32.55
620436,816,32.55
620451,816,32.87
620466,819,32.87
620481,817,33.52
620496,807,33.52
620511,801,33.52
620526,790,32.55
620541,779,32.87
620556,768,33.19
620571,760,32.55
620586,755,34.16
620601,755,33.19
620616,748,32.23
620631,745,33.19
620646,740,32.55
620661,741,33.52
620676,741,32.55
620691,742,34.48
620706,745,33.84
620721,744,32.87
620736,744,33.19
620751,747,34.48
620766,747,33.19
620781,750,33.19
620796,740,32.87
620811,738,33.52
620826,735,32.87
620841,731,33.52
620856,733,32.87
620871,734,32.87
620886,739,32.23
620901,758,32.87
620916,771,32.55
620931,788,33.19
620946,796,32.87
620961,805,33.19
620976,819,33.19
620991,824,33.19
621006,826,33.52
621021,828,33.19
621036,822,32.23
621051,817,32.87
621066,802,32.55
621081,787,33.52
621097,777,33.84
621112,765,32.87
621127,755,32.55
621142,746,32.87
621157,746,32.87
621172,744,33.52
621188,740,33.52
621203,741,33.52
621218,748,33.19
621233,754,33.19
621248,753,32.23
621263,752,32.55
621279,749,33.52
621294,746,32.87
621309,745,32.87
621324,743,33.84
621339,748,32.87
621354,747,32.87
621370,741,33.19
621386,743,33.84
621401,743,33.19
621417,741,33.52
621432,740,32.55
621448,748,32.87
621464,758,32.55
621479,770,32.55
621495,785,32.55
621511,805,33.52
621526,814,33.19
621542,821,33.19
621557,824,33.52
621573,822,32.23
621589,816,33.84
621605,812,32.55
621621,804,33.52
621637,793,31.90
621653,783,33.19
621668,776,32.87
621684,762,33.19
621700,755,33.19
621716,749,33.19
621732,747,33.52
621748,744,32.23
621764,744,32.55
621780,755,32.87
621796,749,33.84
621812,750,32.23
621828,748,32.55
621844,745,32.23
621860,751,33.52
621876,743,32.87
621892,744,33.19
621908,742,33.19
621924,743,32.55
621940,742,32.87
621956,745,33.19
621971,742,33.84
621987,746,33.19
622002,744,33.19
622018,749,32.55
622034,758,32.87
622049,773,33.19
622065,788,32.23
622081,805,33.19
622096,815,33.52
622112,820,32.55
622127,822,32.87
622143,819,32.87
622159,809,32.87
622174,810,33.84
622190,805,33.52
622205,796,32.55
622221,780,33.19
622237,773,33.52
622252,766,32.55
622268,764,33.52
622283,757,32.55
622299,752,33.52
622315,750,33.52
622330,745,32.87
622346,748,32.55
622361,746,32.23
622377,749,32.87
622393,752,32.87
622408,751,31.90
622424,747,32.87
622439,748,33.19
622454,748,32.55
622469,750,32.23
622484,752,32.87
622499,751,33.19
622515,744,33.52
622530,741,32.87
622545,739,33.19
622560,738,32.87
622575,734,32.55
622590,746,33.19
622605,758,33.84
622620,775,33.19
622635,795,32.55
622650,813,33.52
622665,823,33.84
622680,831,33.19
622695,829,33.52
622710,829,33.19
622726,823,33.52
622741,813,32.87
622756,807,32.55
622771,800,33.19
622786,796,32.87
622801,781,32.87
622816,772,33.19
622831,763,32.55
622846,757,33.19
622861,755,32.87
622876,749,32.55
622891,754,33.84
622906,752,32.87
622921,751,33.52
622936,754,32.55
622951,757,33.19
622966,753,33.19
622981,751,33.84
622996,744,33.19
623011,746,33.19
623026,747,33.52
623041,740,33.19
623056,740,32.23
623071,736,32.23
623086,737,32.87
623101,734,32.55
623116,734,31.90
623131,739,33.19
623146,736,32.87
623161,742,32.55
623176,753,33.19
623191,773,34.16
623206,794,32.87
623221,810,33.52
623236,823,32.87
623251,836,32.55
623266,838,33.52
623281,838,33.19
623296,836,33.19
623311,824,32.87
623326,814,33.52
623341,805,33.52
623356,790,32.23
623371,778,33.84
623386,768,32.23
623401,761,32.23
623416,754,31.26
623431,746,33.52
623446,746,33.19
623461,740,33.19
623476,740,32.55
623491,742,33.52
623506,745,33.84
623521,747,32.23
623537,747,32.87
623552,761,32.87
623567,750,33.52
623582,748,31.90
623597,750,33.84
623612,742,33.52
623628,741,33.52
623643,739,33.19
623658,736,32.55
623673,735,33.19
623688,736,33.19
623703,738,32.23
623719,746,33.19
623735,741,33.52
623750,757,32.55
623765,769,32.87
623780,779,32.55
623795,792,32.55
623810,807,33.19
623826,819,33.19
623841,818,33.52
623856,815,33.52
623871,806,33.19
623887,791,32.23
623902,785,32.87
623917,780,32.87
623932,778,33.19
623947,775,33.19
623962,771,33.52
623978,766,33.19
623994,762,33.19
624009,756,32.87
624025,756,32.87
624041,753,33.19
624057,753,32.87
624073,752,32.87
624089,753,32.87
624104,756,33.52
624120,757,34.16
624136,758,33.19
624152,758,33.19
624168,755,33.52
624184,752,32.55
624200,749,33.52
624216,751,33.19
624232,745,32.87
624247,737,33.52
624263,731,33.19
624279,732,32.87
624295,732,33.19
624311,740,32.87
624326,746,33.19
624342,765,32.87
624358,779,32.87
624374,802,32.87
624390,812,32.55
624406,818,32.55
624422,819,32.23
624437,815,32.55
624453,810,33.19
624469,800,32.55
624484,791,32.55
624500,780,33.52
624515,771,33.52
624531,762,33.19
624546,752,32.55
624562,742,32.23
624578,740,33.19
624593,739,33.19
624609,736,31.90
624625,734,33.84
624640,731,32.87
624656,740,32.55
624671,742,32.55
624687,744,32.23
624702,745,31.90
624717,748,32.55
624733,745,32.55
624748,747,33.19
624764,740,32.55
624779,738,32.55
624795,737,32.87
624811,737,33.52
624826,733,32.87
624842,726,33.19
624857,729,32.55
624872,739,33.19
624887,753,33.84
624903,765,32.55
624918,786,32.55
624933,802,33.19
624948,815,33.52
624963,824,32.87
624978,832,33.52
624993,830,32.55
625008,825,33.19
625023,819,32.87
625038,814,33.52
625053,803,33.52
625068,795,32.55
625083,778,33.19
625098,767,31.90
625113,753,33.52
625128,747,33.19
625143,743,34.48
625158,744,33.19
625173,739,32.87
625188,742,32.23
625203,745,32.55
625218,747,32.55
625233,750,33.52
625248,745,32.87
625263,743,33.19
625278,734,32.87
625293,740,32.23
625308,743,33.19
625323,745,32.87
625338,747,32.87
625353,750,32.55
625368,748,31.90
625383,745,32.87
625398,739,33.52
625413,736,32.55
625428,737,33.52
625443,750,33.52
625458,767,33.84
625473,778,33.19
625488,796,32.87
625503,812,32.87
625518,823,33.19
625533,826,33.19
625548,825,32.23
625563,822,33.19
625578,817,33.19
625593,806,33.52
625608,798,33.84
625623,789,33.19
625638,777,32.87
625653,766,33.52
625668,756,32.87
625683,745,33.19
625698,741,33.52
625713,738,32.23
625728,735,32.87
625743,733,33.19
625758,735,33.52
625773,739,33.19
625788,744,33.52
625803,747,32.87
625818,746,33.19
625833,747,32.87
625848,747,32.87
625863,744,32.55
625878,739,32.87
625893,739,32.87
625908,742,33.19
625923,741,32.55
625938,740,33.19
625953,741,32.87
625968,742,31.90
625983,748,33.19
625998,755,32.87
626013,774,32.55
626028,788,33.19
626043,803,33.19
626058,815,33.19
626073,827,33.84
626088,828,33.52
626103,830,32.55
626118,826,32.23
626133,819,32.55
626148,806,32.87
626163,790,34.16
626179,778,32.87
626194,763,33.52
626209,753,31.26
626224,747,32.23
626239,745,32.87
626254,741,33.52
626269,742,33.19
626284,741,32.23
626300,746,32.23
626315,743,33.19
626330,741,33.19
626345,742,31.90
626360,740,32.55
626375,741,32.87
626391,742,32.55
626406,744,33.19
626421,747,32.23
626436,745,31.90
626451,740,33.19
626466,740,33.52
626482,736,32.87
626498,735,32.87
626513,736,33.52
626529,746,33.52
626544,759,32.23
626560,780,32.87
626576,798,32.55
626591,815,32.23
626607,827,32.23
626623,831,33.52
626639,832,32.23
626655,833,33.19
626671,824,33.19
626687,812,32.55
626703,802,33.52
626719,786,32.87
626735,776,32.23
626750,763,33.52
626766,749,32.55
626782,746,32.55
626798,746,33.19
626814,741,32.87
626830,740,32.87
626846,740,32.55
626862,741,33.52
626878,745,33.52
626894,741,32.55
626910,739,32.55
626925,737,32.87
626941,732,32.87
626957,735,33.52
626973,737,31.90
626989,734,33.52
627005,734,33.52
627021,735,33.52
627036,738,32.87
627052,740,32.23
627068,746,33.52
627083,760,33.19
627099,774,32.55
627114,784,32.55
627130,806,32.55
627146,816,33.19
627161,824,32.87
627177,828,32.87
627192,831,33.19
627208,826,32.87
627223,816,32.87
627239,816,33.52
627255,796,33.52
627270,785,33.52
627286,775,32.87
627302,764,33.52
627317,754,33.52
627333,748,32.55
627349,745,32.87
627364,738,33.19
627380,737,31.90
627395,742,33.19
627411,737,33.19
627426,746,32.55
627441,739,32.87
627456,751,32.87
627471,752,33.19
627486,743,33.52
627502,742,31.90
627517,744,32.87
627532,742,33.19
627547,733,32.23
627562,736,33.19
627577,730,32.87
627592,729,32.55
627607,730,32.23
627622,736,33.19
627637,749,33.52
627653,764,33.52
627668,785,32.55
627683,804,33.84
627698,818,32.87
627713,826,33.84
627728,832,33.52
627743,831,33.52
627758,831,32.87
627773,832,32.87
627788,819,33.19
627803,811,32.55
627818,800,33.19
627833,780,32.55
627848,769,33.19
627863,758,33.19
627878,755,33.52
627893,745,33.19
627908,748,32.87
627923,747,32.23
627938,752,32.87
627953,752,34.80
627968,749,33.19
627983,747,32.23
627998,742,33.52
628013,740,32.55
628028,739,32.55
628043,739,32.55
628058,742,33.19
628073,744,33.19
628088,742,33.19
628103,745,34.16
628118,740,33.19
628133,738,33.19
628148,729,33.19
628163,732,32.87
628178,726,33.19
628193,727,33.52
628208,729,32.87
628223,741,32.87
628238,760,31.90
628253,783,33.19
628268,803,33.52
628283,814,32.55
628298,824,33.52
628313,832,33.19
628328,834,33.19
628343,833,33.52
628358,823,33.52
628373,814,32.87
628388,806,33.84
628403,796,32.55
628418,780,32.87
628433,768,32.87
628448,753,33.52
628463,740,32.23
628478,735,32.23
628493,734,33.52
628508,735,32.87
628523,742,32.87
628538,742,33.19
628553,746,32.55
628568,748,33.19
628583,744,33.19
628598,745,32.87
628613,739,32.55
628628,739,33.52
628643,737,33.19
628658,735,33.19
628673,737,33.19
628688,735,32.87
628703,733,33.52
628718,735,32.87
628733,726,32.87
628748,732,33.19
628763,720,32.55
628778,721,33.19
628793,727,33.19
628808,736,32.87
628823,751,32.55
628838,772,33.19
628853,792,32.55
628868,808,33.52
628883,817,33.52
628898,822,33.19
628913,823,32.55
628928,827,32.55
628943,823,33.19
628958,815,33.52
628973,809,34.80
628988,799,33.19
629003,784,33.52
629018,772,33.19
629033,759,33.84
629048,749,33.19
629063,744,33.52
629078,739,32.87
629093,740,33.52
629108,742,33.19
629123,745,32.55
629138,748,32.87
629153,751,33.19
629168,750,32.55
629183,749,33.52
629198,745,32.23
629213,737,32.87
629228,742,32.23
629243,737,33.19
629258,741,33.19
629273,741,33.19
629288,738,32.55
629303,739,33.19
629318,730,33.52
629333,731,32.87
629348,726,32.87
629363,722,32.87
629378,720,33.19
629393,726,33.19
629408,738,31.90
629423,753,33.52
629438,777,32.55
629453,800,32.87
629468,814,33.52
629483,825,33.84
629498,831,32.87
629513,829,32.55
629528,826,33.52
629543,822,33.52
629558,810,32.55
629573,800,32.87
629588,791,33.19
629603,777,32.87
629618,766,32.87
629633,749,33.19
629648,746,32.87
629663,741,33.52
629678,737,32.87
629693,739,32.87
629708,739,32.87
629723,741,33.19
629738,741,33.52
629753,746,32.87
629768,750,32.87
629783,746,31.90
629798,746,33.52
629813,744,33.52
629828,740,33.19
629843,741,31.90
629858,744,33.84
629873,744,32.23
629888,744,34.16
629903,743,32.87
629918,742,33.52
629933,733,32.55
629948,730,33.19
629963,728,33.19
629978,728,32.87
629993,740,32.87
630008,757,32.87
630023,777,33.52
630038,795,32.87
630053,810,33.52
630068,823,33.19
630083,825,33.19
630098,828,33.84
630113,820,33.52
630128,813,33.19
630143,803,33.19
630158,793,31.90
630173,783,33.19
630188,772,33.19
630203,762,32.87
630218,753,32.87
630233,740,32.55
630248,740,32.87
630263,731,32.23
630278,728,32.55
630293,737,32.87
630308,739,33.19
630323,746,32.55
630338,754,33.19
630353,750,32.87
630368,748,32.55
630383,748,32.87
630398,737,32.87
630413,744,34.16
630428,744,33.19
630443,745,33.19
630458,744,32.87
630473,744,32.23
630488,741,33.19
630503,737,32.87
630518,730,33.52
630533,731,33.19
630548,725,32.87
630563,735,32.55
630578,740,33.19
630593,755,32.87
630608,777,32.87
630623,794,32.55
630638,809,33.84
630653,817,33.19
630668,824,32.55
630683,822,33.19
630698,818,33.19
630713,814,32.55
630728,804,33.52
630743,796,32.23
630758,785,33.19
630773,776,33.52
630788,773,32.87
630803,758,32.87
630818,749,33.52
630833,740,33.19
630848,732,33.19
630863,734,32.23
630878,739,33.19
630893,741,33.52
630908,746,32.87
630923,747,34.16
630938,742,33.19
630953,743,33.52
630968,740,32.55
630983,741,32.87
630998,738,32.87
631013,738,33.19
631028,737,32.23
631043,744,33.19
631058,742,32.87
631073,739,33.52
631088,743,33.19
631103,738,33.19
631118,734,32.87
631133,740,33.19
631148,745,32.55
631163,758,32.55
631178,771,32.55
631193,788,32.23
631208,802,32.55
631223,815,33.19
631238,822,33.19
631253,825,32.55
631268,823,33.19
631283,814,32.87
631298,807,33.52
631313,793,33.19
631328,786,33.52
631343,775,32.87
631358,764,32.87
631373,758,32.55
631388,750,33.19
631403,746,33.52
631418,739,32.87
631433,740,32.87
631448,741,33.19
631463,741,32.55
631478,742,33.19
631493,743,32.87
631508,744,33.84
631523,748,33.19
631538,748,33.52
631553,746,32.55
631568,746,32.23
631583,739,33.19
631598,735,34.48
631613,734,33.19
631628,735,32.87
631643,732,32.55
631658,734,32.55
631673,735,32.55
631688,738,33.19
631703,739,32.23
631718,750,33.19
631733,764,32.87
631748,782,33.19
631763,795,33.19
631778,807,33.19
631793,820,33.84
631808,829,32.87
631823,835,32.87
631838,827,33.52
631853,824,32.55
631868,817,33.19
631883,798,32.87
631898,785,32.23
631913,774,32.87
631928,762,32.55
631943,758,32.87
631958,751,33.52
631973,750,32.87
631988,748,32.55
632003,747,32.55
632018,743,33.19
632033,742,32.87
632048,742,33.52
632063,742,33.52
632078,747,32.87
632093,749,33.19
632108,752,32.87
632123,755,32.87
632138,757,33.19
632153,751,33.19
632168,742,32.87
632183,736,33.19
632198,734,32.55
632213,735,32.55
632228,736,32.87
632243,741,32.23
632258,749,33.19
632273,761,33.52
632288,779,32.55
632303,792,32.87
632318,805,33.19
632333,813,32.87
632348,820,33.19
632363,824,32.87
632378,821,33.52
632393,819,32.87
632408,813,33.19
632423,807,32.87
632438,796,32.87
632453,791,32.55
632468,774,32.55
632483,770,32.87
632498,755,32.87
632513,747,33.19
632528,746,32.55
632543,743,33.19
632558,746,32.23
632573,749,32.87
632588,750,32.87
632603,750,33.19
632618,747,32.23
632633,747,33.52
632648,752,33.52
632663,744,32.55
632678,744,31.90
632693,749,33.19
632708,749,32.87
632723,745,31.58
632738,743,32.23
632753,738,32.87
632768,733,33.52
632783,722,32.87
632798,729,32.55
632813,737,32.55
632828,754,33.19
632843,767,33.52
632858,785,32.87
632873,803,33.19
632888,813,32.87
632903,820,33.19
632918,817,33.52
632933,811,33.19
632948,808,32.87
632963,803,32.23
632978,793,32.87
632993,786,32.23
633008,782,32.87
633023,769,32.55
633038,762,32.87
633053,754,33.84
633068,746,34.48
633083,740,32.55
633098,742,33.19
633113,739,32.87
633128,735,31.90
633143,739,32.87
633158,742,32.87
633173,748,32.87
633188,751,32.55
633203,746,32.87
633218,747,33.19
633233,743,33.19
633248,741,32.87
633263,739,33.19
633278,740,32.55
633293,736,32.87
633308,736,33.19
633323,736,32.23
633338,735,32.87
633353,743,33.19
633368,744,32.23
633383,758,33.19
633398,775,32.55
633413,789,33.19
633428,807,33.19
633443,818,32.87
633458,826,32.23
633473,831,33.52
633488,830,33.19
633503,823,33.19
633518,810,32.87
633533,795,32.87
633548,785,33.19
633563,775,32.55
633578,764,32.87
633593,759,32.55
633608,748,32.55
633623,746,32.87
633638,745,32.87
633653,744,33.19
633668,739,33.19
633683,739,33.19
633698,742,32.55
633713,742,33.52
633728,742,33.19
633743,745,33.19
633758,752,33.52
633773,749,32.55
633788,750,32.23
633803,746,32.55
633818,742,33.19
633833,737,32.87
633848,739,32.55
633863,738,33.52
633878,736,33.19
633893,737,32.23
633908,745,32.55
633923,755,32.87
633938,770,33.19
633953,784,33.19
633968,801,33.19
633983,812,32.87
633998,816,33.19
634013,827,32.87
634028,829,32.55
634043,826,33.52
634058,821,32.55
634073,813,32.55
634088,799,33.19
634103,785,33.19
634118,770,32.23
634133,757,33.19
634148,747,32.87
634163,739,32.87
634178,735,33.52
634193,734,32.55
634208,737,32.23
634223,738,32.23
634238,730,33.19
634253,734,32.87
634268,732,32.87
634283,734,32.55
634298,735,34.16
634313,738,32.87
634328,739,33.19
634343,740,32.23
634358,741,32.55
634373,741,32.87
634388,736,32.23
634403,734,32.87
634418,730,32.87
634433,730,33.19
634448,730,32.87
634463,737,32.87
634478,750,32.55
634493,767,32.55
634508,787,32.55
634523,802,32.87
634538,816,32.87
634553,828,33.52
634568,825,33.52
634583,825,33.19
634598,821,32.55
634613,815,33.19
634628,807,31.58
634643,798,33.52
634658,790,32.55
634673,778,32.87
634688,770,32.87
634703,755,32.87
634718,745,33.19
634733,743,32.87
634748,739,32.55
634763,738,32.87
634778,737,33.19
634793,740,32.55
634808,743,32.87
634823,744,32.87
634838,742,32.23
634853,738,33.19
634868,733,32.87
634883,732,33.19
634898,727,33.84
634913,726,32.23
634928,726,31.90
634943,728,32.23
634958,728,32.87
634973,729,33.19
634988,731,33.19
635003,726,32.55
635018,729,33.19
635033,730,32.87
635048,747,33.19
635063,765,32.87
635078,784,33.84
635093,803,33.52
635108,818,33.19
635123,828,32.55
635138,831,32.87
635153,827,32.87
635168,818,33.19
635183,809,32.55
635198,804,33.19
635213,796,32.87
635228,780,32.87
635243,770,32.55
635258,763,33.52
635273,755,32.87
635288,746,31.90
635303,741,32.55
635318,738,32.87
635333,736,32.55
635348,741,33.19
635363,739,32.23
635378,742,33.19
635393,747,33.19
635408,746,32.55
635423,748,32.87
635438,749,32.87
635453,743,32.87
635468,737,32.55
635483,731,33.52
635498,729,33.52
635513,726,32.23
635528,724,33.19
635543,728,33.19
635558,729,33.19
635573,730,33.52
635588,729,32.87
635603,733,32.55
635618,738,32.23
635633,749,33.52
635648,768,33.19
635663,781,33.19
635678,797,32.87
635693,809,32.87
635708,822,33.84
635723,824,32.87
635738,827,33.19
635753,821,33.19
635768,813,33.52
635783,801,33.19
635798,789,33.52
635813,778,33.19
635828,765,33.19
635843,757,33.19
635858,757,33.52
635873,753,33.19
635888,750,32.87
635903,746,32.87
635918,742,32.23
635933,742,32.23
635948,740,33.84
635963,740,32.87
635978,738,32.87
635993,740,33.52
636008,744,33.19
636023,740,33.19
636038,737,33.52
636053,731,32.55
636068,730,32.23
636083,732,33.19
636098,733,33.19
636113,732,33.52
636128,732,33.52
636143,734,32.55
636158,732,33.19
636173,733,33.19
636188,730,32.23
636203,725,32.87
636218,733,33.52
636233,748,32.87
636248,766,32.87
636263,786,32.55
636278,807,33.19
636293,817,33.52
636308,824,32.55
636323,826,33.52
636338,817,33.52
636353,810,32.87
636368,802,32.55
636383,793,32.87
636398,781,33.19
636413,779,32.87
636428,758,33.19
636443,757,33.19
636458,749,32.87
636473,739,32.87
636488,739,32.87
636503,732,33.19
636518,732,33.52
636533,732,32.55
636548,735,33.19
636563,738,33.19
636578,744,32.87
636593,749,33.19
636608,753,33.84
636623,754,33.19
636638,751,33.19
636653,749,32.87
636668,745,32.55
636683,741,33.19
636698,736,33.52
636713,732,33.52
636728,731,32.55
636743,729,32.87
636758,721,32.55
636773,724,32.23
636788,719,32.87
636803,722,33.19
636818,728,32.87
636833,738,33.19
636848,753,32.87
636863,770,33.19
636878,796,33.19
636893,809,33.52
636908,825,33.19
636923,829,33.52
636938,830,33.19
636953,822,32.87
636968,818,32.87
636983,806,33.84
636998,792,33.52
637013,784,33.19
637028,778,33.52
637043,766,33.19
637059,757,32.87
637074,749,33.19
637089,741,33.52
637104,737,33.52
637119,733,33.52
637134,731,32.23
637150,732,32.87
637166,736,33.52
637181,738,32.23
637197,743,32.55
637212,745,32.87
637228,746,32.23
637244,746,32.23
637260,743,33.52
637276,743,33.19
637292,739,32.87
637307,738,32.55
637323,737,33.19
637339,737,32.87
637354,740,34.16
637370,731,33.19
637386,731,32.87
637402,730,33.19
637418,730,33.52
637434,741,32.87
637449,754,33.19
637465,775,32.87
637481,791,32.55
637497,804,33.19
637513,815,33.19
637529,818,32.87
637545,817,33.52
637561,806,33.19
637577,794,33.19
637593,784,32.87
637609,775,32.55
637625,765,32.23
637641,754,32.55
637657,741,33.19
637673,738,33.19
637689,732,32.55
637705,731,33.19
637721,731,32.87
637737,730,32.55
637753,729,32.55
637769,733,33.52
637785,733,32.23
637801,738,32.87
637817,737,32.87
637833,740,33.19
637849,737,31.90
637865,736,33.19
637881,733,33.19
637897,733,32.87
637913,734,33.19
637928,736,33.52
637944,734,33.19
637959,733,33.84
637975,733,33.52
637991,733,33.19
638006,734,32.55
638022,745,33.19
638037,757,32.55
638053,771,33.19
638069,786,33.19
638084,794,32.55
638100,798,32.87
638115,801,32.87
638131,801,33.52
638147,795,33.52
638162,789,33.19
638178,783,33.52
638193,776,32.55
638209,767,32.87
638225,759,33.19
638240,751,33.19
638256,743,32.87
638271,741,32.55
638286,737,32.55
638301,736,32.23
638316,734,32.87
638331,740,33.52
638346,740,33.19
638361,745,33.19
638377,745,33.19
638392,747,32.55
638407,748,32.23
638422,748,33.19
638437,746,33.19
638452,742,32.87
638467,738,33.19
638482,733,33.52
638497,734,33.52
638512,730,33.19
638528,733,32.87
638543,727,33.19
638558,732,33.19
638573,736,32.87
638588,743,32.87
638603,755,32.23
638618,774,33.19
638633,782,32.87
638648,792,33.52
638663,799,33.19
638678,805,32.55
638693,810,32.55
638708,806,32.55
638723,801,32.23
638738,796,33.52
638753,783,32.55
638768,776,32.55
638783,770,33.52
638798,762,33.19
638813,751,32.55
638828,746,32.55
638843,745,32.55
638858,745,32.87
638873,748,33.52
638888,746,32.87
638903,745,32.87
638918,740,33.19
638933,744,32.87
638948,743,33.19
638963,746,33.19
638978,747,32.23
638993,752,33.52
639008,752,33.52
639023,747,33.52
639038,745,32.87
639053,739,33.52
639068,732,32.23
639083,733,33.84
639098,732,33.19
639113,732,32.23
639128,738,32.55
639143,755,33.52
639158,767,33.19
639173,777,33.19
639188,789,32.87
639203,799,32.55
639218,808,33.19
639233,810,32.55
639248,814,32.55
639263,811,32.55
639278,808,32.87
639293,801,33.84
639308,798,33.19
639323,788,33.52
639338,775,33.52
639353,767,32.55
639368,754,33.19
639383,748,32.87
639399,745,33.19
639414,745,32.55
639429,749,33.19
639444,748,32.23
639459,752,32.87
639474,754,31.90
639490,754,32.87
639505,756,32.87
639520,751,32.87
639535,748,33.52
639550,748,33.19
639565,748,33.19
639581,745,33.19
639597,744,32.87
639612,742,32.87
639628,740,32.87
639643,739,33.19
639658,736,32.87
639673,741,32.87
639689,748,32.55
639705,760,33.52
639720,773,32.55
639736,787,32.55
639751,800,33.19
639767,806,32.87
639783,807,32.87
639798,808,32.23
639814,807,33.52
639830,801,32.87
639846,791,33.52
639862,792,32.87
639878,784,32.87
639893,774,32.87
639909,770,33.19
639925,767,32.87
639941,757,33.19
639957,753,32.87
639973,747,33.19
639988,750,33.19
640004,738,33.19
640020,738,33.19
640035,740,32.87
640051,741,33.52
640067,740,32.55
640083,742,33.19
640099,747,32.87
640115,749,32.87
640131,748,33.52
640147,749,32.55
640163,748,32.55
640178,748,32.55
640194,750,33.19
640210,751,33.19
640226,756,33.52
640242,754,32.87
640258,765,32.55
640273,777,33.52
640289,791,32.23
640305,805,32.87
640321,815,33.19
640337,817,32.87
640353,817,33.19
640368,816,32.55
640384,807,32.87
640400,800,34.80
640415,791,32.87
640431,779,33.19
640446,769,32.23
640462,760,32.55
640477,757,32.87
640493,755,32.55
640509,752,32.55
640524,753,32.55
640540,754,32.87
640556,749,32.87
640571,744,32.87
640587,747,32.55
640603,748,32.87
640618,748,34.16
640634,749,31.58
640649,751,33.19
640665,748,32.87
640681,746,33.19
640696,748,33.19
640712,747,32.87
640727,746,33.19
640743,746,32.87
640759,747,33.52
640774,745,32.87
640790,749,33.52
640805,756,32.55
640821,772,32.87
640837,789,33.19
640852,803,33.19
640868,815,32.87
640883,821,32.87
640898,831,33.52
640913,827,32.87
640928,825,33.52
640943,816,33.52
640959,811,33.52
640974,793,32.55
640989,781,33.19
641004,773,32.87
641019,758,33.84
641034,748,32.87
641049,750,32.87
641064,750,33.52
641079,752,33.52
641094,753,33.19
641109,756,32.55
641124,759,33.19
641140,756,31.90
641155,753,33.19
641170,753,32.55
641185,755,32.87
641200,750,33.52
641215,750,32.87
641230,752,33.52
641245,750,32.87
641260,746,33.19
641275,745,32.87
641290,738,32.87
641305,735,33.19
641320,737,32.23
641335,743,32.87
641350,760,33.19
641365,775,32.87
641380,799,32.87
641395,814,33.52
641410,825,33.19
641425,834,33.19
641440,836,33.19
641455,833,32.55
641470,827,33.52
641485,819,32.55
641500,810,33.19
641515,803,32.55
641530,794,33.19
641545,782,32.23
641560,773,32.87
641575,765,32.87
641590,757,32.87
641605,752,32.87
641620,744,33.19
641635,744,32.23
641650,745,33.52
641665,746,32.55
641680,751,33.19
641695,758,32.87
641710,761,33.19
641725,762,33.19
641740,756,33.19
641755,755,32.55
641770,758,33.19
641785,749,32.87
641800,749,32.55
641815,743,32.55
641830,743,31.90
641845,746,33.19
641860,744,33.19
641875,747,32.55
641891,753,33.19
641906,767,33.52
641921,784,33.52
641936,793,33.52
641951,812,32.87
641966,822,33.19
641982,831,33.19
641998,837,33.19
642013,834,32.87
642029,832,33.52
642044,822,33.19
642060,812,32.55
642076,800,32.87
642091,787,32.55
642107,772,32.55
642123,760,32.23
642138,748,33.52
642154,742,33.19
642169,740,34.16
642185,741,32.23
642201,746,32.55
642216,746,33.84
642232,748,32.55
642248,753,33.52
642263,749,33.52
642279,758,33.52
642294,758,33.19
642310,752,33.52
642326,751,33.19
642342,744,32.23
642358,742,32.55
642374,741,32.87
642390,737,32.55
642406,735,33.52
642422,731,33.52
642438,732,31.90
642454,737,33.19
642470,749,32.55
642486,777,33.19
642501,788,33.52
642517,814,32.55
642533,824,32.55
642549,836,33.52
642565,838,33.19
642581,836,32.55
642597,834,32.87
642613,824,32.55
642629,809,32.55
642645,793,33.19
642661,785,33.19
642677,772,31.90
642693,762,33.52
642709,755,33.19
642725,751,32.55
642741,752,32.55
642756,750,32.55
642772,750,33.19
642788,750,32.55
642803,747,33.19
642819,745,33.84
642834,747,32.23
642850,744,32.87
642866,747,32.55
642881,748,32.87
642897,745,33.19
642912,741,33.19
642928,745,32.23
642944,748,33.19
642959,743,33.19
642975,737,32.87
642990,736,32.55
643006,735,32.55
643022,734,32.55
643037,735,33.19
643053,744,32.55
643069,762,33.52
643084,784,33.52
643100,802,32.55
643115,818,33.19
643131,828,32.87
643147,830,33.52
643162,840,33.19
643178,842,33.52
643193,831,33.52
643209,824,32.87
643224,808,33.19
643239,794,32.23
643254,781,33.19
643269,770,33.52
643284,763,32.55
643299,754,33.52
643314,748,32.87
643329,746,33.19
643344,751,33.19
643359,753,32.55
643374,751,32.55
643390,756,33.19
643405,749,32.87
643420,747,32.87
643435,749,32.87
643450,745,32.87
643465,744,33.19
643480,744,33.19
643495,742,32.87
643510,740,32.55
643525,737,32.87
643540,735,34.16
643555,734,32.55
643570,734,32.55
643585,734,33.84
643600,735,33.19
643615,739,33.19
643630,737,32.87
643645,742,32.87
643660,755,33.19
643675,769,33.52
643690,790,32.87
643705,801,33.19
643720,824,32.55
643735,835,33.19
643750,842,33.52
643765,846,33.19
643780,843,32.87
643795,833,33.19
643810,822,33.52
643825,813,33.19
643840,797,33.19
643855,781,32.55
643870,766,32.23
643885,757,33.19
643900,750,33.19
643915,748,32.87
643930,744,32.23
643945,748,33.19
643960,747,32.23
643975,749,32.87
643990,749,33.52
644005,745,32.87
644020,747,33.52
644035,743,33.19
644050,743,32.55
644065,742,32.55
644080,748,30.62
644095,742,32.87
644110,743,32.87
644125,741,32.87
644140,737,31.90
644155,731,32.87
644170,733,32.87
644185,730,32.55
644200,730,33.19
644215,736,32.87
644230,731,32.55
644245,737,32.87
644260,736,32.23
644275,744,33.52
644290,760,33.52
644305,777,32.87
644320,795,32.23
644335,812,32.87
644350,826,32.55
644365,839,33.19
644380,841,32.23
644395,843,33.52
644410,837,33.52
644425,828,32.87
644440,815,33.84
644455,800,33.19
644470,786,33.19
644485,771,33.19
644500,759,32.87
644515,751,33.52
644530,747,32.23
644545,745,33.52
644560,747,32.87
644575,748,33.19
644590,748,33.19
644605,744,33.19
644620,743,33.52
644635,744,33.19
644650,742,32.87
644665,742,32.87
644680,747,33.19
644695,744,33.19
644710,744,33.19
644725,741,33.19
644740,735,33.19
644755,735,32.55
644770,733,33.52
644785,732,33.19
644800,734,32.87
644815,734,32.55
644830,734,33.52
644845,735,32.87
644860,735,32.23
644875,739,33.84
644890,739,33.19
644905,752,32.23
644920,766,32.55
644935,788,33.52
644950,803,33.19
644965,823,33.19
644980,835,32.87
644995,839,32.87
645010,838,33.19
645025,835,33.19
645040,821,32.87
645055,808,32.23
645070,796,33.19
645085,789,33.19
645100,772,32.87
645115,760,32.87
645130,754,32.87
645145,751,33.52
645160,748,32.87
645175,744,33.52
645190,740,33.19
645205,741,32.87
645220,742,32.87
645235,743,32.55
645250,746,32.23
645265,745,32.87
645280,749,33.52
645295,747,33.19
645310,750,33.19
645325,748,33.19
645340,745,33.19
645355,740,32.87
645370,735,33.19
645385,735,32.55
645400,735,32.55
645415,739,32.87
645430,736,33.52
645445,736,32.23
645460,734,32.87
645475,732,33.52
645490,736,32.55
645505,739,32.23
645520,758,33.52
645535,774,33.19
645550,787,33.19
645565,809,32.55
645580,827,34.16
645596,833,33.52
645611,836,33.19
645626,833,32.55
645641,823,32.87
645656,811,32.87
645671,803,33.52
645686,788,33.84
645701,776,33.19
645716,761,33.19
645731,754,32.87
645746,751,33.52
645761,745,32.87
645776,744,32.55
645791,746,31.90
645806,741,33.19
645821,740,32.55
645836,742,32.87
645851,743,33.19
645866,746,33.19
645881,749,32.55
645896,746,32.87
645911,750,31.90
645926,751,33.19
645941,742,32.87
645956,739,33.19
645971,735,32.87
645986,734,32.23
646001,733,32.87
646016,731,33.19
646031,733,32.87
646046,739,33.19
646061,737,32.87
646076,732,33.19
646091,733,32.87
646106,739,32.55
646121,749,33.19
646136,762,32.55
646151,780,33.52
646166,798,32.87
646181,813,33.19
646196,824,32.23
646211,827,32.87
646226,829,33.52
646241,820,32.23
646256,812,33.19
646271,803,33.19
646286,795,33.19
646301,780,33.52
646316,773,32.87
646331,760,32.23
646346,753,32.55
646361,754,33.19
646376,743,32.23
646391,741,32.55
646406,738,32.55
646421,736,32.55
646436,740,32.55
646451,739,32.55
646466,743,32.87
646481,746,33.19
646496,747,33.52
646511,746,33.19
646526,742,32.23
646541,740,32.23
646556,735,32.87
646571,734,33.19
646586,731,33.19
646601,731,33.19
646616,733,32.55
646631,735,33.19
646646,733,32.23
646661,733,32.23
646676,733,32.87
646691,732,33.52
646706,733,33.19
646721,744,32.87
646736,759,33.52
646751,782,32.55
646766,799,32.55
646781,813,32.55
646796,818,33.52
646811,826,32.87
646826,819,33.52
646841,817,33.19
646856,803,32.23
646871,792,31.58
646886,787,32.23
646901,770,32.87
646916,759,32.23
646931,754,32.87
646946,749,33.52
646961,738,33.19
646976,737,32.87
646991,730,33.19
647006,729,33.84
647021,729,33.19
647036,726,32.55
647051,729,33.19
647066,730,33.19
647081,738,33.19
647096,741,33.52
647111,742,32.23
647126,740,33.52
647141,740,32.87
647156,735,32.87
647171,730,32.55
647186,729,32.23
647201,730,33.19
647216,730,32.23
647231,730,33.19
647246,729,32.55
647261,725,32.87
647276,726,32.23
647291,727,32.87
647306,740,32.87
647321,753,32.87
647336,772,32.87
647351,791,33.19
647366,805,32.87
647381,814,32.87
647396,825,32.87
647411,824,32.55
647426,819,32.87
647441,811,33.52
647456,801,32.87
647472,786,33.84
647487,780,33.19
647502,768,33.52
647517,755,32.55
647532,745,32.23
647547,743,32.87
647562,742,32.55
647577,745,33.19
647592,734,33.19
647607,738,32.55
647622,735,32.87
647637,736,32.87
647652,736,31.90
647667,738,32.55
647682,742,32.55
647697,746,32.55
647712,744,34.16
647727,748,33.52
647742,741,31.90
647757,733,31.90
647772,732,33.19
647787,731,33.19
647802,728,33.52
647817,728,32.55
647832,725,33.19
647847,725,32.87
647862,734,33.52
647878,754,33.19
647893,769,32.55
647908,784,33.52
647923,797,33.19
647938,811,33.52
647953,819,33.52
647969,822,32.87
647985,828,33.19
648000,820,33.19
648016,815,33.19
648031,806,32.87
648047,794,33.52
648063,776,32.23
648078,769,32.87
648094,760,33.19
648110,753,32.55
648125,745,32.87
648141,740,32.55
648156,737,32.23
648172,736,30.94
648188,737,33.52
648204,736,32.87
648220,742,32.87
648236,740,32.87
648252,741,33.19
648267,742,32.87
648283,743,33.19
648299,743,32.55
648315,742,32.87
648331,744,33.19
648347,738,32.87
648363,736,31.90
648379,733,33.19
648395,738,33.19
648411,735,32.87
648427,748,32.55
648443,758,33.52
648459,774,33.52
648475,791,33.19
648491,807,33.52
648506,813,32.87
648522,824,33.19
648538,822,32.23
648553,820,33.19
648569,817,33.52
648584,808,32.87
648600,801,32.87
648616,787,33.19
648631,778,32.87
648647,767,33.19
648662,756,33.84
648678,753,32.23
648694,741,33.19
648709,738,32.87
648725,736,32.87
648741,736,32.23
648756,737,33.52
648772,737,34.48
648787,739,32.55
648803,740,33.19
648819,742,33.19
648834,743,32.55
648850,745,32.87
648865,746,32.87
648881,743,33.52
648897,743,33.19
648912,741,32.55
648928,742,32.23
648943,729,33.19
648959,732,32.23
648975,733,32.87
648990,731,33.19
649006,739,33.19
649022,757,33.19
649037,775,31.26
649053,793,33.19
649068,809,32.23
649084,820,32.23
649099,829,32.23
649114,831,32.55
649129,824,32.87
649144,819,32.55
649159,809,33.52
649174,807,32.87
649189,783,33.19
649204,772,31.90
649219,758,33.19
649234,753,33.19
649249,745,32.87
649265,744,31.90
649280,745,32.87
649295,742,32.87
649310,741,32.87
649325,737,34.16
649340,740,32.87
649355,738,32.87
649370,743,32.55
649385,745,33.19
649400,750,32.87
649415,754,32.55
649430,754,33.19
649445,757,33.19
649460,748,32.87
649475,747,32.87
649490,739,32.55
649505,736,33.19
649520,736,33.52
649535,731,32.55
649550,739,33.19
649565,742,33.19
649580,752,32.55
649595,764,32.87
649610,779,32.55
649625,796,32.55
649640,807,33.52
649655,813,32.55
649670,818,33.52
649685,817,32.87
649700,810,33.84
649715,804,33.19
649730,800,33.19
649745,796,33.84
649760,781,33.19
649775,770,32.55
649790,756,33.19
649805,752,33.19
649820,745,32.87
649835,742,32.87
649850,742,32.23
649865,744,32.87
649880,749,32.87
649895,751,32.87
649910,754,32.87
649925,747,33.52
649940,747,32.87
649955,744,32.23
649970,746,32.87
649985,744,32.87
650000,744,32.23
650015,746,32.87
650030,743,33.19
650045,744,33.19
650060,744,32.87
650075,737,33.19
650090,733,33.52
650105,730,32.87
650120,736,33.19
650135,739,33.19
650150,753,33.19
650165,778,33.19
650180,789,33.52
650195,807,33.19
650210,813,32.87
650225,815,32.87
650240,812,33.19
650255,806,33.52
650270,804,33.19
650285,796,32.55
650300,793,32.55
650315,791,33.19
650330,777,33.52
650345,768,32.87
650360,756,32.87
650375,744,33.84
650391,740,33.19
650406,735,32.87
650421,733,32.23
650436,737,33.52
650452,734,32.87
650468,740,31.58
650483,744,32.87
650499,747,33.19
650514,746,32.87
650530,747,32.55
650546,744,32.55
650561,743,32.87
650577,744,33.19
650593,742,32.87
650608,732,33.19
650624,732,33.84
650639,730,33.52
650655,731,32.23
650671,731,32.87
650686,741,33.19
650702,755,33.52
650718,778,33.19
650734,793,33.52
650750,810,32.23
650766,818,32.55
650781,827,32.55
650797,830,33.84
650813,825,32.23
650829,820,33.52
650845,811,33.19
650861,796,33.19
650877,785,33.19
650893,769,32.23
650909,757,32.87
650925,743,33.19
650941,738,33.19
650957,739,33.19
650973,735,31.90
650989,740,32.87
651005,740,33.19
651021,740,32.87
651037,747,33.19
651053,745,32.55
651069,748,32.55
651084,749,32.87
651100,747,33.19
651116,747,32.87
651131,753,33.52
651147,744,32.87
651163,740,33.19
651178,738,32.23
651194,736,32.87
651209,736,32.87
651225,738,32.87
651241,750,33.19
651256,764,32.55
651272,786,32.55
651288,806,33.19
651303,818,33.19
651318,825,33.19
651334,828,33.52
651350,824,32.87
651366,824,33.19
651381,816,32.55
651397,808,33.19
651412,795,32.87
651428,782,32.87
651444,775,33.19
651459,759,32.23
651474,751,34.16
651489,745,32.87
651505,739,33.19
651520,740,30.94
651536,740,33.84
651551,742,32.55
651566,745,33.19
651581,748,32.55
651596,753,33.52
651611,749,33.19
651627,749,33.52
651642,745,32.87
651657,743,33.19
651672,740,32.87
651687,737,33.19
651702,733,32.87
651717,732,32.55
651732,733,33.19
651747,729,32.23
651762,730,33.52
651778,740,33.19
651793,748,33.52
651808,761,33.19
651823,780,32.87
651838,798,32.55
651853,815,32.55
651868,827,32.87
651883,830,33.19
651898,836,33.52
651913,834,32.23
651928,827,32.87
651943,816,32.87
651958,806,31.90
651973,794,33.19
651988,781,32.55
652003,773,32.87
652018,762,32.87
652033,755,33.52
652048,751,33.52
652063,750,32.55
652078,746,32.87
652093,744,33.19
652108,744,33.19
652123,743,33.52
652138,746,32.87
652153,747,33.52
652168,747,33.19
652183,750,32.55
652198,754,32.87
652213,749,32.87
652228,747,32.55
652243,743,33.52
652258,737,33.19
652273,735,33.52
652288,735,33.19
652303,730,33.19
652318,732,32.87
652333,740,32.87
652348,741,31.58
652363,763,32.87
652378,775,33.19
652393,793,33.52
652408,807,33.19
652423,819,32.87
652438,829,32.87
652453,831,32.55
652468,829,33.52
652483,829,32.55
652498,824,33.84
652513,817,33.52
652528,803,32.55
652543,789,32.23
652558,776,33.19
652573,764,32.55
652588,756,32.55
652603,749,33.19
652618,745,33.19
652633,742,32.55
652649,745,32.87
652664,745,33.52
652679,747,33.19
652694,746,32.87
652709,746,32.55
652724,747,33.19
652740,745,33.19
652755,752,32.87
652770,744,32.23
652785,745,33.19
652800,744,32.87
652815,745,32.87
652831,742,32.55
652847,738,32.87
652862,738,33.52
652877,728,33.52
652892,728,33.52
652907,732,33.19
652922,739,33.19
652938,758,33.19
652953,781,33.52
652968,798,32.23
652983,815,33.19
652999,830,32.55
653014,837,32.55
653029,839,33.52
653044,834,33.52
653059,828,33.52
653074,816,32.87
653090,803,33.19
653106,789,32.55
653121,781,33.19
653137,766,33.52
653153,756,33.19
653168,754,32.55
653184,742,32.87
653199,745,32.55
653215,743,32.55
653231,745,32.87
653247,747,32.55
653263,750,33.52
653279,749,33.19
653294,750,33.52
653310,746,31.90
653326,747,32.87
653341,742,32.55
653357,738,32.87
653373,739,32.87
653388,735,32.55
653404,734,31.90
653420,736,32.87
653436,730,32.55
653451,738,33.19
653467,734,32.87
653483,738,33.19
653499,745,33.19
653515,762,33.52
653531,780,33.52
653547,800,32.87
653562,816,32.55
653578,830,33.19
653593,830,33.19
653609,830,33.19
653625,826,33.19
653640,821,33.52
653656,813,33.52
653671,804,32.55
653687,792,33.19
653703,778,32.87
653718,768,33.52
653734,762,32.87
653749,755,33.19
653765,752,32.55
653781,753,33.19
653796,748,32.87
653812,743,32.23
653828,745,32.87
653843,745,32.87
653859,746,32.23
653874,745,32.87
653890,744,33.19
653906,743,33.84
653921,740,32.55
653937,739,33.52
653952,740,32.55
653967,744,32.55
653982,738,32.87
653997,740,32.55
654012,738,32.87
654028,738,33.84
654043,733,32.55
654058,729,32.23
654073,729,32.55
654088,733,33.19
654103,746,32.55
654118,770,32.87
654133,794,33.84
654148,813,32.87
654163,821,31.90
654178,829,32.23
654193,829,33.52
654208,827,33.19
654223,818,32.55
654238,811,32.23
654253,803,33.84
654268,791,31.26
654283,780,32.87
654298,772,32.23
654313,761,32.55
654328,749,32.55
654343,737,32.55
654358,730,33.84
654373,731,32.87
654388,736,32.87
654403,737,32.87
654418,743,33.19
654433,744,33.19
654448,751,32.87
654463,752,33.19
654478,742,33.19
654493,744,32.87
654508,740,33.19
654523,739,33.19
654538,736,32.87
654553,734,33.52
654568,738,33.52
654583,737,31.26
654598,737,32.87
654613,731,33.19
654628,730,32.55
654643,726,32.55
654658,731,33.19
654673,741,31.90
654688,754,32.55
654703,775,32.55
654718,795,32.87
654733,812,32.87
654748,824,32.87
654763,829,33.19
654778,827,32.87
654793,822,33.19
654808,811,32.23
654823,804,33.52
654838,793,33.52
654853,782,32.23
654868,776,32.55
654883,767,32.87
654898,758,32.87
654913,754,32.87
654928,744,32.23
654943,743,33.19
654958,737,32.23
654973,736,33.19
654988,739,33.19
655003,743,32.55
655018,746,32.23
655033,747,33.19
655048,749,32.23
655063,747,33.52
655078,742,32.87
655093,737,32.23
655108,734,32.55
655123,732,32.55
655138,732,32.55
655153,741,32.87
655168,731,33.19
655183,728,33.19
655198,727,32.87
655213,728,33.19
655228,730,33.84
655243,737,32.55
655258,754,33.52
655273,769,33.19
655288,786,33.19
655303,803,32.87
655318,815,33.19
655333,820,33.52
655348,829,32.55
655363,825,32.55
655378,816,32.55
655393,807,33.19
655408,795,33.52
655423,785,33.19
655438,776,33.19
655453,765,33.19
655468,753,33.19
655483,749,32.55
655498,742,32.55
655513,740,33.52
655529,739,32.23
655544,734,33.52
655559,734,33.19
655574,738,32.23
655589,731,32.87
655604,733,32.87
655620,734,34.16
655636,733,32.55
655651,734,32.55
655667,734,32.87
655682,736,32.87
655698,735,32.55
655714,734,33.19
655729,732,33.19
655745,727,33.52
655761,729,32.87
655776,723,32.55
655792,721,32.55
655807,732,32.55
655822,746,32.55
655837,766,32.55
655853,788,33.19
655869,805,32.87
655885,816,32.87
655901,823,33.19
655917,830,32.23
655933,829,33.84
655949,818,32.55
655965,807,32.87
655981,795,32.55
655997,781,33.52
656013,765,32.55
656029,758,33.19
656045,747,32.55
656061,743,33.52
656077,741,32.55
656092,737,33.19
656108,746,33.19
656123,746,32.87
656139,746,32.87
656155,745,33.52
656171,740,32.87
656187,736,32.55
656203,736,32.87
656219,737,32.23
656234,740,33.19
656250,740,32.55
656265,741,33.52
656281,745,33.84
656297,737,32.55
656312,735,33.19
656328,731,32.55
656343,728,32.55
656359,732,32.55
656375,739,32.87
656390,754,33.19
656406,764,33.52
656421,791,33.19
656437,812,33.52
656453,825,33.19
656468,831,33.52
656484,833,32.87
656500,831,32.55
656515,823,32.87
656531,813,33.19
656546,801,33.19
656561,784,32.87
656576,771,33.19
656592,759,33.19
656607,748,32.87
656622,741,33.52
656637,735,33.19
656653,733,32.55
656669,732,33.19
656684,733,33.19
656700,738,32.87
656715,736,32.55
656730,738,32.55
656745,741,33.19
656760,735,32.23
656775,734,33.19
656790,734,32.87
656805,733,32.87
656820,732,32.23
656835,735,32.87
656851,735,33.19
656866,733,32.87
656881,731,32.55
656896,731,32.87
656911,730,33.52
656926,733,33.19
656941,735,32.55
656956,747,32.87
656971,764,33.52
656986,786,33.19
657001,805,32.87
657016,818,32.23
657031,833,33.19
657046,835,33.84
657061,836,33.19
657076,829,33.52
657091,822,32.55
657106,813,33.84
657121,803,32.87
657136,790,32.87
657151,778,33.19
657166,766,33.84
657181,758,32.55
657196,746,33.52
657211,747,33.52
657226,740,33.52
657241,735,33.19
657256,737,33.52
657271,733,33.52
657286,743,32.55
657301,741,33.19
657316,744,32.23
657331,741,33.52
657346,743,32.87
657361,741,32.23
657376,740,33.84
657391,736,33.19
657406,740,33.19
657421,735,33.52
657436,735,32.87
657451,739,32.87
657466,742,33.19
657481,736,32.87
657496,734,32.55
657511,736,32.87
657526,740,33.52
657541,756,33.19
657556,775,33.52
657571,794,33.52
657586,815,33.52
657601,830,32.87
657616,840,32.55
657631,843,32.87
657646,842,31.90
657661,831,33.19
657676,821,33.52
657691,807,32.87
657706,794,32.55
657721,782,32.87
657736,773,32.55
657751,766,32.87
657766,758,33.19
657781,754,32.87
657796,747,32.87
657811,741,33.52
657826,739,32.55
657841,740,32.87
657856,739,33.19
657871,745,32.55
657886,749,33.19
657901,752,32.87
657916,751,32.87
657931,751,33.52
657946,748,33.52
657961,748,32.87
657976,742,33.19
657991,740,32.55
658006,734,33.52
658021,741,33.19
658036,733,32.87
658051,731,33.52
658066,731,32.87
658081,725,32.55
658096,728,32.55
658111,732,33.19
658126,745,32.87
658141,764,32.87
658156,784,32.55
658171,805,32.87
658186,825,33.19
658201,835,33.52
658216,839,32.55
658231,840,33.19
658246,834,32.55
658261,825,32.55
658276,809,33.84
658291,797,33.19
658306,784,33.19
658321,774,33.19
658336,762,32.55
658351,754,33.52
658366,747,32.55
658381,745,33.84
658396,739,33.19
658411,733,32.87
658426,727,33.19
658441,727,31.90
658456,730,32.87
658471,734,33.19
658486,736,32.23
658501,742,33.52
658516,747,32.87
658531,744,32.55
658546,739,32.87
658561,736,33.19
658576,729,33.52
658591,724,32.87
658606,728,32.87
658621,720,32.55
658636,717,33.19
658651,726,33.19
658666,726,32.55
658681,731,33.52
658696,745,32.55
658711,759,32.87
658726,777,32.87
658741,801,32.87
658756,810,32.23
658771,825,33.19
658786,831,32.87
658801,836,32.87
658816,835,32.23
658831,824,32.87
658846,809,32.87
658861,799,33.19
658876,787,32.55
658891,774,33.19
658906,763,31.90
658921,754,32.87
658936,751,32.55
658951,746,33.19
658966,740,32.23
658981,740,33.19
658996,737,33.19
659011,738,33.84
659026,734,33.52
659041,736,32.87
659056,738,33.52
659071,737,33.52
659086,744,33.52
659101,742,33.52
659116,742,33.19
659131,740,33.52
659146,738,33.19
659161,735,32.23
659176,731,32.23
659191,729,33.52
659206,729,34.16
659221,726,33.19
659236,730,33.52
659251,734,32.23
659266,746,32.87
659281,758,33.84
659296,777,32.55
659311,796,33.19
659326,810,32.87
659341,823,33.52
659356,828,33.52
659371,831,32.87
659386,832,32.87
659401,829,33.84
659416,823,32.87
659431,810,32.87
659446,797,32.87
659461,783,33.19
659476,771,32.87
659491,755,32.23
659506,752,33.19
659521,752,33.19
659536,748,31.58
659551,753,32.87
659566,753,32.87
659581,755,33.52
659596,750,33.19
659611,746,32.23
659626,746,32.23
659641,746,32.87
659656,748,32.87
659671,744,32.55
659686,744,33.19
659701,747,33.19
659716,749,32.55
659731,748,32.23
659746,743,32.23
659761,738,32.87
659776,739,32.87
659791,733,31.90
659806,738,32.87
659821,744,32.55
659836,756,31.90
659851,773,33.52
659866,789,33.52
659881,808,32.87
659896,822,32.55
659911,829,32.55
659926,835,32.87
659941,836,33.19
659956,834,33.52
659971,829,32.87
659986,823,32.87
660001,814,32.87
660016,804,32.87
660031,790,33.52
660046,772,32.55
660061,760,33.52
660076,749,32.23
660091,743,32.23
660106,741,33.19
660121,741,31.90
660136,741,33.52
660151,748,32.55
660166,745,33.19
660181,745,32.87
660196,743,32.87
660211,738,33.19
660226,738,33.19
660241,739,32.55
660256,740,33.84
660271,744,32.87
660286,741,33.19
660301,741,32.87
660316,737,32.87
660331,734,33.52
660346,728,32.87
660361,722,33.84
660376,723,33.84
660391,735,33.19
660406,747,33.19
660421,763,32.55
660436,785,32.23
660451,802,33.52
660466,813,32.87
660481,819,33.19
660496,823,33.19
660511,822,32.23
660526,815,33.19
660541,811,32.55
660556,803,31.90
660571,800,33.52
660586,788,33.52
660601,781,33.52
660616,775,32.87
660631,764,32.87
660646,754,32.23
660661,748,32.87
660676,743,33.52
660691,742,31.90
660706,742,31.90
660721,745,33.19
660736,751,33.19
660751,748,32.55
660766,754,32.87
660781,748,31.90
660796,742,32.55
660811,741,32.87
660826,734,32.87
660841,738,33.52
660856,737,32.55
660871,738,33.19
660886,735,33.52
660901,731,33.19
660916,727,33.52
660931,728,32.87
660946,727,32.87
660961,735,33.19
660976,751,33.19
660991,770,31.90
661006,788,34.48
661021,813,32.87
661036,826,32.87
661051,833,32.87
661066,837,32.23
661081,834,32.87
661096,824,32.87
661111,816,33.84
661126,811,33.52
661141,799,33.52
661156,787,33.19
661171,775,33.52
661186,767,33.19
661201,760,33.52
661216,755,32.23
661231,749,32.55
661246,745,33.19
661261,744,33.19
661276,743,33.52
661291,746,33.19
661306,747,32.87
661321,747,32.87
661336,749,32.87
661351,753,32.55
661366,752,33.52
661381,748,32.87
661396,741,33.52
661411,738,32.23
661426,735,33.19
661441,736,33.19
661456,732,32.23
661471,736,33.19
661486,733,33.19
661501,733,32.87
661516,737,32.87
661531,750,32.55
661546,766,32.87
661561,783,33.19
661576,806,33.19
661591,814,32.55
661606,830,33.19
661621,838,32.23
661636,843,33.52
661651,847,32.87
661666,837,32.55
661681,827,33.52
661696,821,32.55
661711,802,33.19
661726,795,33.52
661741,780,33.52
661756,771,32.87
661771,761,32.87
661786,754,32.87
661801,750,32.23
661816,746,32.87
661831,745,32.87
661846,743,31.90
661861,740,33.19
661876,746,32.55
661891,746,32.23
661906,750,33.19
661921,740,33.19
661936,748,33.52
661951,754,33.52
661966,745,32.55
661981,743,32.87
661996,737,32.23
662011,734,33.52
662026,732,32.55
662041,731,33.19
662056,727,32.87
662071,727,32.87
662086,735,33.52
662101,744,33.19
662116,761,32.87
662131,781,32.87
662146,799,33.19
662161,814,32.55
662176,832,32.23
662191,847,33.52
662206,845,32.55
662221,845,34.16
662236,842,33.52
662251,833,33.19
662266,824,33.52
662281,809,33.52
662296,791,33.52
662311,779,32.55
662326,764,33.52
662341,756,32.87
662356,748,33.19
662371,744,33.52
662386,737,32.87
662401,741,32.87
662416,742,32.55
662431,737,32.87
662446,732,32.55
662461,738,32.87
662476,740,33.19
662491,740,33.19
662506,742,33.19
662521,744,34.48
662536,748,33.19
662551,747,32.87
662566,746,32.55
662581,747,33.19
662596,739,32.23
662611,737,33.84
662626,735,32.87
662641,729,32.55
662656,732,33.52
662671,738,32.55
662686,748,33.19
662701,763,32.87
662716,784,33.19
662731,801,33.19
662746,813,33.19
662761,826,33.19
662776,835,33.52
662791,838,33.52
662806,843,33.19
662821,840,33.19
662836,838,32.55
662851,827,33.19
662866,816,33.52
662881,801,33.52
662896,788,32.23
662911,768,31.90
662926,756,33.19
662941,748,33.19
662956,744,32.55
662971,744,33.52
662986,739,33.19
663001,737,32.23
663016,735,33.19
663031,734,32.55
663046,736,33.19
663061,739,33.19
663076,744,32.23
663091,746,32.55
663106,747,32.55
663121,749,32.55
663136,749,32.55
663151,749,32.87
663166,746,32.87
663181,740,33.19
663196,737,32.87
663211,734,32.87
663226,731,33.19
663241,720,32.55
663256,729,32.87
663271,733,33.19
663286,741,33.19
663301,759,33.52
663316,774,32.87
663331,792,33.19
663346,802,32.87
663361,814,32.23
663376,820,32.55
663391,825,33.52
663406,827,33.19
663421,823,32.55
663436,814,33.19
663451,806,32.87
663466,789,33.19
663481,777,33.52
663496,760,33.19
663511,748,32.87
663526,745,33.19
663541,731,33.52
663556,731,32.87
663571,729,32.55
663586,731,32.23
663601,729,32.87
663616,730,32.55
663631,729,33.19
663646,730,32.87
663661,730,32.55
663676,735,32.55
663691,737,33.19
663706,739,33.19
663721,737,33.52
663736,735,33.19
663751,733,32.55
663766,731,32.23
663781,731,32.87
663796,722,33.84
663811,722,32.87
663826,720,32.23
663841,725,33.52
663856,730,31.90
663871,747,33.52
663886,764,32.23
663901,788,32.87
663916,800,33.19
663931,810,33.19
663946,818,33.19
663961,819,32.87
663976,820,32.23
663991,816,33.19
664006,812,33.19
664021,808,32.87
664036,798,33.52
664051,783,32.55
664066,775,32.87
664081,762,31.90
664096,752,31.90
664111,742,33.52
664126,736,32.55
664141,732,33.19
664156,734,32.87
664171,731,32.55
664186,735,33.19
664201,734,32.87
664216,732,33.19
664231,733,33.19
664246,730,32.55
664261,733,32.87
664276,733,32.87
664291,732,33.19
664306,736,32.55
664321,735,33.52
664336,734,32.23
664351,734,33.19
664366,730,32.87
664381,727,32.55
664396,718,32.55
664411,716,32.87
664426,725,32.55
664441,740,33.19
664456,763,33.52
664471,784,32.23
664486,800,32.23
664501,817,33.19
664516,825,32.23
664531,831,32.87
664546,831,33.19
664561,827,32.87
664576,823,33.52
664591,819,32.87
664606,803,32.55
664621,798,32.55
664636,785,32.55
664651,772,32.87
664666,758,32.23
664681,747,33.19
664696,740,33.52
664711,737,33.52
664726,732,33.52
664741,734,33.52
664756,737,33.52
664771,733,32.55
664786,738,32.87
664801,736,33.19
664816,738,34.16
664831,738,33.52
664846,730,32.87
664861,730,32.55
664876,726,32.55
664891,726,32.87
664906,726,33.19
664921,728,32.87
664936,727,33.19
664951,724,33.52
664966,717,32.55
664981,727,33.52
664996,730,32.23
665011,739,32.23
665026,754,32.87
665041,775,33.84
665056,796,31.90
665071,811,32.87
665086,824,32.55
665101,826,33.52
665116,827,32.87
665131,823,33.19
665146,820,33.19
665161,811,32.87
665176,800,33.19
665191,792,32.23
665206,784,33.52
665221,765,33.52
665236,763,32.55
665251,755,32.55
665266,747,33.52
665281,740,32.55
665296,738,32.87
665311,730,33.19
665326,735,32.87
665341,731,31.58
665356,736,31.90
665371,739,33.19
665386,739,32.87
665401,740,32.87
665416,736,33.19
665431,735,32.87
665446,735,33.19
665461,731,32.55
665476,730,32.55
665491,729,33.19
665506,728,32.55
665521,729,33.19
665536,728,32.55
665551,727,32.87
665566,730,32.55
665581,742,32.55
665596,755,32.87
665611,766,33.19
665626,787,32.55
665641,804,34.16
665656,815,33.19
665671,830,33.52
665686,831,32.87
665701,831,33.19
665716,826,33.52
665731,815,32.55
665746,803,31.90
665761,791,32.55
665776,780,32.55
665791,768,33.19
665806,760,33.19
665821,753,33.52
665836,744,32.55
665851,740,33.19
665866,734,32.23
665881,729,32.87
665896,728,33.52
665911,729,33.19
665926,728,33.19
665941,730,32.55
665956,733,32.87
665971,738,33.19
665986,736,33.19
666001,738,33.19
666016,728,32.23
666031,732,32.87
666046,730,32.87
666061,730,33.19
666076,725,32.87
666091,726,33.19
666106,721,33.19
666121,724,32.55
666136,730,32.55
666151,737,33.19
666166,759,33.52
666181,768,32.87
666196,786,32.55
666211,800,33.19
666227,813,33.19
666242,820,33.19
666257,815,33.84
666272,824,33.19
666287,813,33.19
666302,811,33.19
666318,795,32.87
666334,782,33.19
666349,769,33.19
666365,758,33.52
666380,745,33.84
666396,737,32.55
666412,734,32.87
666427,730,33.52
666443,727,32.87
666459,729,32.23
666474,729,32.87
666490,731,32.55
666505,736,32.55
666521,729,32.87
666537,738,32.87
666553,737,32.23
666569,740,32.87
666585,740,33.52
666600,736,32.87
666616,734,32.87
666632,732,33.52
666648,729,32.87
666664,728,32.55
666680,728,33.19
666695,729,33.19
666711,746,33.52
666727,762,33.52
666742,780,32.87
666758,795,32.87
666774,812,32.87
666790,822,32.55
666806,828,33.19
666822,828,33.19
666837,832,32.87
666853,822,32.87
666869,816,32.87
666885,800,33.52
666901,789,33.84
666917,785,33.52
666933,759,33.19
666949,749,32.87
666965,739,32.87
666981,737,33.19
666997,734,33.19
667013,736,33.19
667029,733,33.52
667045,737,33.19
667061,736,32.87
667077,736,32.87
667092,738,33.52
667108,745,33.19
667124,740,32.23
667140,742,31.90
667156,743,33.19
667172,736,33.84
667187,742,33.19
667203,740,33.52
667218,737,33.19
667234,728,33.52
667250,730,33.19
667265,734,32.23
667281,743,32.87
667296,764,32.87
667312,784,32.87
667328,807,33.52
667343,816,32.87
667359,825,33.19
667374,831,32.87
667390,832,32.87
667406,823,33.52
667421,818,33.19
667437,803,33.19
667452,792,32.55
667467,782,33.19
667482,767,32.55
667497,752,33.52
667512,749,32.87
667528,740,33.52
667543,739,33.19
667558,736,32.55
667573,734,32.87
667588,739,32.87
667603,739,33.19
667618,738,33.52
667633,733,33.19
667648,736,33.19
667663,736,32.55
667678,731,33.52
667693,735,33.19
667709,736,32.23
667724,737,32.55
667739,740,33.19
667754,741,32.87
667769,743,33.19
667784,739,33.19
667799,734,33.52
667814,742,33.19
667829,744,32.55
667844,756,31.26
667859,774,32.55
667874,792,32.87
667889,810,32.87
667904,821,32.55
667919,832,33.84
667934,829,33.52
667949,824,33.19
667964,823,32.55
667979,817,33.52
667994,816,32.55
668009,804,32.87
668024,792,33.52
668039,781,32.87
668054,770,33.52
668069,762,32.87
668084,750,32.87
668099,746,33.19
668114,746,33.19
668129,744,32.87
668144,742,33.52
668159,743,33.52
668174,741,32.23
668189,743,32.23
668204,742,32.87
668219,742,33.19
668234,743,32.55
668249,735,32.55
668264,732,32.87
668279,733,32.87
668294,733,32.55
668309,734,33.19
668324,729,33.19
668339,730,32.87
668354,729,32.87
668369,729,32.87
668384,733,32.55
668399,748,33.19
668414,762,32.87
668429,778,32.87
668444,796,31.90
668459,810,33.19
668474,823,33.19
668489,828,33.19
668504,830,32.87
668519,827,33.19
668534,818,32.55
668549,808,34.16
668564,799,33.52
668580,789,33.19
668595,779,32.55
668610,769,33.19
668625,764,32.87
668640,759,33.19
668655,750,32.23
668671,744,31.58
668686,741,33.19
668701,739,32.55
668716,736,33.52
668731,735,33.19
668746,735,32.55
668762,733,33.19
668778,734,33.52
668793,739,32.55
668809,740,32.87
668824,742,32.87
668840,742,32.55
668856,739,32.55
668871,733,33.19
668887,731,32.55
668903,729,33.19
668918,722,32.23
668934,721,32.87
668949,726,33.19
668965,733,32.87
668981,750,32.55
668997,773,32.23
669013,795,33.52
669029,815,33.52
669044,827,32.87
669060,835,33.52
669076,837,33.52
669091,833,33.52
669107,825,32.87
669123,814,32.55
669138,802,32.87
669154,790,33.19
669169,774,32.87
669185,759,33.19
669201,748,33.19
669217,729,33.84
669233,734,31.90
669249,736,33.19
669265,732,32.23
669281,736,33.19
669297,738,32.55
669313,735,33.52
669329,740,32.87
669345,742,32.87
669361,738,32.55
669377,737,32.55
669393,736,31.90
669409,740,33.52
669425,737,33.19
669441,736,32.55
669457,734,31.90
669473,730,33.19
669489,729,32.87
669505,727,32.87
669521,732,32.87
669536,739,32.55
669552,753,33.19
669568,773,32.87
669584,793,32.87
669600,807,33.19
669616,820,32.55
669631,824,33.19
669647,826,33.19
669663,824,33.19
669678,814,32.55
669694,805,33.52
669709,798,32.55
669725,782,32.23
669740,774,33.19
669756,760,32.55
669772,752,32.87
669787,746,32.87
669803,740,33.52
669818,736,32.23
669834,738,32.55
669850,740,33.19
669865,737,32.55
669881,738,31.90
669896,739,33.19
669911,741,32.87
669927,743,33.52
669942,743,32.87
669958,740,32.55
669973,746,33.52
669989,740,32.55
670005,737,33.19
670020,735,32.55
670036,731,32.23
670051,729,33.19
670066,721,32.23
670081,721,33.19
670096,728,32.87
670111,741,32.23
670127,761,33.19
670142,784,33.19
670157,804,32.87
670172,815,33.52
670187,829,33.19
670202,835,32.87
670217,831,33.52
670232,825,33.52
670247,815,33.52
670262,809,32.55
670278,797,33.52
670293,784,30.94
670308,776,32.55
670323,766,32.23
670338,754,33.52
670353,746,33.84
670368,739,32.87
670383,732,33.19
670398,731,33.52
670413,732,33.84
670428,736,32.87
670443,748,32.87
670458,742,32.87
670473,744,32.55
670488,745,33.19
670503,742,32.23
670518,740,32.55
670533,736,32.55
670548,735,32.55
670563,733,32.55
670578,738,32.55
670593,734,32.55
670608,734,33.19
670623,729,34.48
670638,728,33.19
670653,728,33.19
670668,735,32.87
670683,748,32.23
670698,759,31.90
670713,779,33.19
670728,799,33.19
670743,811,32.55
670758,823,32.87
670773,829,33.19
670788,833,33.19
670803,828,32.55
670818,819,32.23
670833,810,31.90
670848,800,32.87
670863,788,32.87
670878,775,32.55
670893,765,33.19
670908,758,32.87
670923,752,32.23
670938,749,33.19
670953,747,33.19
670968,741,33.19
670983,737,32.23
670998,742,33.19
671013,739,33.52
671028,738,32.23
671043,735,32.55
671059,740,33.52
671074,744,33.52
671089,746,33.19
671104,744,31.90
671119,747,32.87
671134,741,33.19
671149,735,32.87
671164,736,32.87
671180,729,35.77
671195,730,32.87
671210,728,32.55
671225,728,32.87
671240,732,32.87
671255,742,32.23
671271,758,33.52
671287,779,32.87
671302,798,33.19
671318,814,32.87
671334,826,32.23
671349,825,32.55
671365,828,32.55
671380,822,32.23
671396,815,33.19
671412,807,33.19
671428,792,31.90
671444,778,32.87
671460,770,33.52
671475,757,32.87
671491,749,32.87
671507,746,32.87
671523,748,32.87
671539,747,33.19
671555,738,32.87
671571,742,33.19
671587,744,31.90
671603,745,33.52
671619,744,32.87
671635,741,33.19
671651,746,32.87
671667,742,32.55
671683,741,32.55
671699,738,33.52
671715,738,32.87
671731,734,32.23
671747,734,32.87
671763,731,33.19
671779,726,32.55
671795,724,33.19
671811,728,33.52
671827,740,32.87
671842,759,32.23
671858,785,32.87
671874,801,32.23
671890,816,33.19
671906,828,32.87
671922,832,32.55
671937,831,32.87
671953,826,32.87
671969,819,33.19
671984,808,32.87
672000,795,33.84
672015,779,33.19
672031,768,32.87
672047,754,32.23
672062,744,32.87
672078,737,32.87
672093,732,31.90
672109,737,33.52
672125,736,32.23
672140,740,32.55
672155,746,33.52
672170,743,32.55
672186,747,33.52
672201,747,33.19
672217,744,33.19
672233,745,33.19
672248,745,33.19
672264,741,32.87
672279,736,33.52
672295,736,33.19
672310,737,32.87
672325,736,32.23
672340,738,32.87
672355,736,32.87
672370,732,33.52
672385,737,33.19
672400,747,32.87
672415,762,31.90
672430,784,31.90
672446,808,33.84
672461,819,32.55
672476,829,33.19
672491,839,32.87
672506,842,33.52
672521,835,32.23
672536,833,33.19
672551,811,32.55
672566,798,32.23
672581,785,33.52
672596,773,33.19
672611,762,33.19
672626,755,32.55
672641,751,32.87
672656,748,33.19
672671,744,31.90
672686,740,33.19
672701,737,32.87
672716,738,32.23
672731,748,33.19
672746,742,32.87
672761,748,32.87
672776,748,33.19
672791,753,32.87
672806,752,33.84
672821,748,33.19
672836,747,32.87
672851,742,32.87
672866,741,33.19
672881,736,32.55
672896,733,32.23
672911,732,33.19
672926,731,32.55
672941,728,32.23
672956,731,33.52
672971,737,32.23
672986,748,33.19
673001,767,32.55
673016,782,33.19
673031,800,32.55
673046,818,32.55
673061,829,32.87
673076,840,33.52
673091,839,33.52
673106,833,33.19
673121,825,33.19
673136,809,32.87
673151,797,33.19
673166,787,33.19
673181,776,33.19
673196,761,33.19
673211,757,33.19
673226,748,32.23
673241,744,33.19
673256,744,32.23
673271,742,33.52
673286,738,32.23
673301,739,33.52
673316,738,32.87
673331,742,33.52
673346,740,33.52
673361,744,33.19
673376,743,32.87
673391,745,32.23
673406,742,33.52
673421,744,32.87
673436,739,33.52
673451,733,33.19
673466,732,32.87
673481,728,32.55
673496,728,32.87
673511,728,32.87
673526,732,32.87
673541,728,33.19
673556,737,33.19
673571,753,32.23
673586,771,33.52
673601,790,32.87
673616,803,33.52
673631,818,33.19
673646,830,32.23
673661,836,32.87
673676,838,33.19
673691,836,33.19
673706,832,33.19
673721,817,33.19
673736,803,32.87
673751,787,33.19
673766,772,33.52
673781,760,33.19
673796,753,33.19
673811,745,32.23
673826,742,32.87
673841,739,33.19
673856,741,33.52
673871,733,33.19
673886,737,32.87
673901,736,32.23
673916,737,33.19
673931,740,33.52
673946,734,32.87
673961,739,32.55
673976,743,32.87
673991,744,33.19
674006,744,32.23
674021,743,32.55
674036,737,33.19
674051,734,32.87
674066,729,32.55
674081,726,32.23
674096,726,31.90
674111,727,32.23
674126,736,32.87
674141,740,31.90
674156,749,32.23
674171,772,32.55
674186,792,34.16
674201,809,32.87
674216,822,32.87
674231,830,33.19
674246,835,33.19
674261,833,32.87
674276,829,32.87
674291,828,32.87
674306,812,32.55
674321,798,33.19
674336,792,33.19
674351,776,33.19
674366,763,32.55
674381,753,32.23
674396,744,33.19
674411,742,32.55
674426,741,32.55
674441,744,32.87
674456,752,33.52
674471,747,32.87
674486,750,32.87
674501,752,32.87
674516,751,33.19
674531,751,32.87
674546,750,32.87
674561,753,33.19
674576,744,33.52
674591,742,32.55
674606,739,33.19
674621,737,33.19
674636,728,33.19
674651,726,33.52
674666,720,32.23
674681,720,32.55
674696,725,32.55
674711,722,32.55
674726,727,33.19
674741,737,33.19
674756,751,32.87
674771,773,31.90
674786,794,33.84
674801,807,33.52
674816,824,32.55
674831,832,32.23
674846,834,33.19
674861,834,33.19
674876,827,32.23
674891,817,32.55
674906,803,32.55
674921,791,33.84
674936,776,33.84
674951,761,32.55
674966,752,32.87
674981,745,33.19
674996,746,32.87
675011,745,33.19
675026,741,32.87
675041,744,32.87
675056,741,32.23
675071,740,33.19
675086,735,33.19
675101,733,32.87
675116,734,32.87
675131,736,32.55
675146,741,32.55
675161,742,31.90
675176,742,31.90
675191,738,33.52
675206,742,32.55
675221,738,32.87
675236,729,31.90
675251,729,32.55
675266,726,32.87
675281,721,33.19
675296,719,32.55
675311,722,31.90
675326,730,32.55
675341,741,32.55
675356,761,33.19
675371,777,33.52
675386,795,32.87
675401,809,33.19
675416,817,33.19
675431,825,33.19
675446,827,32.87
675461,823,33.52
675476,818,32.55
675491,809,32.23
675506,796,33.19
675521,779,33.52
675536,764,32.23
675551,750,33.19
675566,740,32.87
675581,737,33.19
675596,731,33.19
675611,732,32.55
675626,735,32.87
675641,737,32.87
675656,742,33.19
675671,743,32.87
675686,742,33.19
675701,741,32.55
675716,741,32.55
675731,743,31.90
675746,745,31.90
675761,744,33.19
675776,744,32.55
675791,743,32.87
675806,738,32.55
675821,733,33.52
675836,731,32.87
675851,728,33.19
675866,726,32.87
675881,727,32.55
675896,728,33.52
675911,738,32.23
675926,758,33.19
675941,776,32.23
675956,792,33.19
675971,806,31.90
675986,818,33.84
676001,823,32.87
676016,825,33.19
676031,829,32.87
676046,818,32.55
676061,810,33.19
676076,803,33.19
676091,792,32.23
676106,777,31.90
676121,763,32.55
676136,756,32.87
676151,743,32.55
676166,738,31.90
676181,734,32.87
676196,732,33.19
676211,731,32.87
676226,741,33.19
676241,744,32.23
676256,741,32.55
676271,739,32.23
676286,740,32.55
676301,741,32.55
676316,741,32.87
676331,740,31.90
676346,744,32.87
676361,746,31.90
676376,748,33.19
676391,747,33.19
676406,742,32.87
676421,737,32.23
676436,735,33.19
676451,732,33.52
676466,732,32.55
676481,747,32.87
676496,761,32.23
676511,787,32.55
676526,810,32.87
676541,825,33.19
676556,834,33.19
676571,841,33.84
676586,836,32.87
676601,833,33.19
676616,825,33.52
676631,818,33.52
676646,811,33.52
676661,799,32.87
676676,789,33.19
676692,780,32.55
676707,765,32.23
676722,757,32.55
676737,750,32.87
676752,746,32.55
676767,741,32.87
676782,739,32.87
676797,734,33.19
676812,736,32.87
676827,734,31.26
676842,745,34.48
676857,743,32.87
676872,745,32.87
676887,736,33.19
676902,736,32.87
676917,734,32.87
676932,735,32.55
676947,738,33.19
676962,748,32.55
676977,738,33.52
676992,739,32.55
677007,737,33.19
677022,745,32.87
677037,746,32.23
677052,756,32.87
677067,769,33.84
677082,787,33.84
677097,807,32.87
677112,822,33.19
677128,836,32.87
677143,838,33.19
677158,843,33.19
677173,838,32.23
677188,832,32.87
677203,815,33.19
677219,802,31.90
677235,787,32.55
677250,773,33.19
677266,763,33.19
677281,751,33.19
677297,746,32.23
677313,743,32.55
677328,745,32.55
677344,744,32.87
677360,745,32.55
677375,748,33.52
677391,752,31.90
677406,752,33.52
677422,751,33.52
677438,745,32.87
677453,742,33.19
677469,740,33.19
677485,739,33.19
677501,742,32.87
677517,734,32.55
677533,736,33.19
677549,734,33.19
677565,731,32.87
677581,732,31.90
677596,738,32.87
677612,753,33.52
677628,779,33.19
677644,793,33.19
677660,816,33.19
677676,829,33.52
677692,841,33.19
677708,843,31.90
677724,840,32.55
677740,835,33.52
677756,823,33.19
677772,809,33.19
677788,793,33.19
677803,781,32.87
677819,767,32.87
677835,755,33.52
677851,745,33.19
677867,739,32.23
677883,741,33.52
677898,736,32.23
677914,738,32.87
677930,740,33.19
677946,740,32.87
677962,743,32.55
677978,744,33.52
677993,750,32.87
678009,748,32.87
678024,749,33.52
678040,747,32.87
678055,740,32.87
678071,742,32.55
678087,738,32.23
678102,738,32.87
678118,730,32.55
678133,723,33.19
678148,728,32.55
678164,732,32.87
678179,748,32.23
678195,768,33.19
678210,789,33.52
678226,812,33.52
678242,824,32.23
678257,833,32.87
678273,839,32.87
678288,833,32.87
678303,820,33.19
678318,810,32.87
678334,794,33.52
678349,784,32.55
678364,773,33.19
678379,762,32.55
678394,754,33.19
678409,748,33.19
678424,742,33.19
678439,739,32.55
678454,737,32.55
678469,739,33.19
678484,738,33.52
678499,738,32.87
678515,736,32.55
678530,749,33.19
678545,749,32.55
678560,754,33.19
678575,758,33.19
678590,756,32.87
678605,755,32.87
678620,749,33.84
678635,749,33.52
678650,744,31.90
678665,737,33.19
678680,737,32.87
678695,738,32.87
678710,742,32.55
678725,759,33.19
678740,777,33.19
678755,790,32.87
678770,800,32.55
678785,811,32.23
678800,820,33.19
678815,824,32.55
678830,828,33.52
678845,825,32.87
678860,825,32.87
678875,820,33.19
678890,808,33.19
678905,791,32.87
678920,778,32.87
678935,766,32.87
678950,752,31.90
678965,747,33.84
678980,743,32.87
678995,743,33.19
679010,741,33.19
679025,748,32.23
679040,749,33.52
679055,752,33.19
679070,747,32.87
679085,746,33.52
679100,744,32.55
679115,742,32.55
679130,741,33.19
679145,746,33.19
679160,745,32.23
679175,744,32.87
679190,743,33.52
679205,734,32.55
679220,728,32.55
679235,727,33.19
679250,722,32.55
679265,730,31.58
679280,742,32.87
679295,765,33.19
679310,788,33.52
679325,811,33.19
679340,829,32.55
679355,842,32.23
679370,846,32.23
679386,845,32.23
679401,843,33.19
679416,835,33.19
679431,823,33.52
679446,812,33.52
679461,804,31.90
679477,790,32.23
679492,780,33.52
679507,766,32.87
679522,758,32.87
679537,752,32.23
679552,742,32.87
679568,742,33.19
679584,743,32.23
679599,745,32.87
679615,748,32.87
679630,753,32.87
679645,747,32.55
679660,748,32.55
679675,747,32.55
679690,745,32.23
679706,743,32.55
679722,745,32.87
679737,741,31.90
679753,733,32.55
679768,730,32.87
679784,732,33.19
679800,731,33.19
679815,739,34.16
679831,754,33.52
679847,776,31.90
679862,795,32.87
679878,817,33.19
679893,834,32.55
679909,849,32.23
679925,847,32.55
679940,846,32.55
679956,844,33.19
679972,832,33.19
679987,816,32.87
680003,802,32.87
680018,790,32.23
680034,773,32.87
680050,761,32.87
680066,752,32.87
680082,746,32.23
680098,740,32.87
680113,743,32.87
680129,741,32.87
680145,744,33.19
680161,741,32.87
680177,746,33.19
680193,746,32.23
680209,748,32.55
680225,748,32.23
680241,745,33.84
680257,743,31.90
680273,741,35.45
680289,735,33.19
680305,737,33.52
680321,733,33.84
680337,734,33.19
680353,731,32.55
680369,738,32.55
680385,755,32.55
680401,779,32.87
680417,804,31.90
680433,822,33.19
680449,843,33.19
680465,853,33.84
680480,854,33.52
680496,848,33.52
680511,842,32.87
680527,828,32.87
680543,816,33.52
680558,804,32.87
680574,790,33.19
680590,777,33.19
680605,763,33.19
680621,748,32.87
680636,737,32.87
680652,728,32.23
680667,726,32.55
680683,731,32.87
680699,733,33.19
680714,739,32.55
680730,737,32.23
680746,735,31.90
680761,739,32.55
680776,738,32.87
680791,736,32.55
680807,736,32.87
680822,735,33.19
680838,733,32.23
680853,729,33.84
680868,732,32.87
680883,726,33.19
680898,725,32.55
680913,724,32.55
680928,727,32.87
680943,738,33.19
680958,753,33.19
680973,770,32.87
680989,794,33.52
681004,813,33.52
681019,832,33.52
681034,840,32.87
681049,842,33.19
681064,840,33.19
681079,836,32.55
681094,829,32.87
681109,818,32.55
681124,802,32.87
681139,784,32.55
681154,770,34.16
681169,750,33.19
681184,743,33.19
681199,732,33.19
681214,730,32.87
681229,729,32.55
681244,732,31.90
681259,736,32.87
681274,737,32.55
681289,738,33.19
681304,746,33.19
681319,739,33.19
681334,738,31.90
681349,737,32.55
681364,741,32.23
681379,749,32.55
681394,747,32.87
681409,748,32.55
681424,742,32.87
681439,739,32.55
681454,734,32.87
681469,723,32.55
681484,715,33.52
681499,726,33.19
681514,737,32.55
681529,751,32.55
681544,776,32.55
681559,800,33.52
681574,818,33.19
681589,828,32.55
681604,838,32.87
681619,840,32.55
681634,839,33.19
681649,838,33.19
681664,830,33.19
681679,814,32.87
681694,803,31.90
681709,787,32.87
681724,772,32.87
681739,754,32.87
681754,739,32.55
681769,733,33.52
681784,729,33.19
681799,724,32.23
681814,729,32.87
681829,727,32.23
681844,733,33.19
681859,739,32.55
681874,742,33.19
681889,739,33.19
681904,737,33.52
681919,736,32.23
681934,733,33.19
681949,735,32.23
681964,733,33.19
681979,735,32.87
681994,727,33.52
682009,729,33.19
682024,724,33.19
682039,723,31.90
682054,720,32.55
682069,722,32.87
682084,730,32.55
682099,749,33.52
682115,774,31.90
682130,796,32.87
682145,820,31.90
682160,840,33.19
682175,853,32.87
682190,857,32.87
682205,854,31.90
682220,849,33.19
682236,839,32.23
682251,827,33.84
682266,819,32.87
682281,805,32.55
682296,794,32.87
682311,780,33.19
682327,765,32.87
682343,756,32.23
682358,750,32.87
682374,744,32.87
682389,737,32.55
682405,731,32.87
682421,735,33.19
682436,727,32.55
682452,722,33.52
682468,724,32.55
682484,721,32.23
682500,721,32.87
682516,718,32.87
682532,715,32.87
682548,719,32.87
682564,722,32.87
682579,725,32.23
682595,723,32.55
682611,726,32.55
682627,731,32.87
682643,733,32.87
682659,743,33.19
682674,761,32.87
682690,776,33.19
682706,796,32.23
682721,813,33.84
682737,834,32.87
682752,832,31.90
682768,829,33.19
682784,827,32.55
682799,816,33.19
682815,809,32.87
682830,792,32.55
682846,779,32.87
682862,770,33.19
682877,754,31.90
682893,745,32.87
682909,733,33.19
682924,728,31.58
682940,722,32.55
682955,718,32.55
682971,720,32.87
682986,727,32.87
683002,728,33.52
683018,733,32.55
683034,742,32.55
683049,746,33.19
683065,757,33.19
683080,753,32.55
683096,749,33.19
683111,751,32.55
683127,754,33.19
683143,758,32.55
683158,749,33.19
683174,742,31.90
683189,731,33.19
683204,725,32.55
683219,719,32.55
683234,722,33.19
683249,732,33.19
683265,739,32.23
683280,765,32.87
683295,791,33.52
683310,820,32.87
683325,832,32.87
683341,842,32.23
683356,842,31.26
683371,837,32.87
683386,825,32.87
683401,818,33.19
683416,806,32.55
683431,797,32.87
683446,783,32.87
683461,771,32.87
683476,759,32.87
683491,750,32.55
683506,743,33.19
683521,743,32.55
683536,738,32.55
683551,737,32.55
683566,733,33.52
683581,738,32.23
683596,740,32.55
683611,742,32.23
683626,742,33.52
683641,742,32.55
683656,738,33.52
683671,740,32.87
683686,738,32.55
683701,739,32.87
683716,740,32.55
683731,745,33.19
683746,751,32.23
683761,749,32.55
683776,743,32.55
683791,736,32.87
683806,726,33.19
683821,711,32.23
683836,705,32.87
683851,711,33.19
683866,722,34.16
683881,745,32.87
683896,771,33.19
683911,800,33.19
683926,818,33.52
683941,834,33.19
683956,835,33.19
683971,838,32.55
683986,838,33.19
684001,831,33.19
684016,831,32.55
684031,821,33.19
684046,812,33.52
684061,804,33.19
684076,790,32.23
684091,775,33.52
684106,762,32.87
684121,746,33.52
684136,734,33.52
684151,733,33.84
684166,727,32.87
684181,725,33.84
684196,727,33.19
684211,728,33.52
684226,729,32.87
684241,726,32.55
684256,727,32.87
684271,726,33.19
684286,728,32.87
684301,725,32.87
684316,725,33.19
684331,726,33.19
684346,727,32.23
684361,732,32.87
684376,727,33.52
684391,727,32.87
684406,723,32.55
684421,723,33.19
684436,717,32.55
684451,720,33.19
684466,716,32.87
684481,727,32.55
684496,746,32.87
684511,766,32.87
684526,784,32.55
684541,809,32.87
684556,826,32.87
684571,838,32.23
684586,849,32.87
684601,850,32.55
684616,849,32.23
684632,842,33.19
684647,830,32.87
684662,816,32.87
684677,799,32.55
684692,782,32.87
684707,765,33.19
684723,748,32.87
684738,735,32.55
684753,732,32.87
684768,730,32.55
684783,731,32.87
684798,736,32.55
684813,734,33.19
684828,738,33.19
684844,743,32.87
684860,738,33.84
684875,737,33.19
684891,740,32.87
684906,732,32.23
684922,728,32.87
684938,722,33.19
684953,719,32.23
684969,717,33.19
684985,715,32.55
685000,715,32.87
685016,714,32.55
685031,719,32.87
685047,717,32.87
685063,716,32.23
685078,728,32.55
685094,743,32.87
685109,760,33.19
685125,782,33.19
685141,801,33.19
685156,815,33.52
685172,827,33.52
685187,833,32.87
685203,830,33.84
685219,822,32.23
685235,812,32.23
685251,800,32.87
685267,787,32.87
685283,773,31.90
685299,765,33.19
685315,756,33.52
685331,743,32.23
685346,740,32.55
685362,732,32.23
685377,732,32.87
685393,735,32.87
685409,736,32.87
685424,737,33.52
685440,739,33.19
685455,743,33.52
685471,746,32.87
685487,742,32.23
685502,745,33.19
685518,742,32.87
685534,740,32.23
685549,736,32.55
685565,735,32.55
685580,730,33.19
685596,729,32.23
685611,729,32.87
685627,726,33.19
685643,724,31.90
685658,728,32.87
685674,731,32.87
685689,747,33.84
685704,765,32.55
685720,785,33.19
685735,806,33.19
685751,821,33.19
685766,826,33.19
685782,833,32.23
685798,833,31.58
685813,827,33.52
685829,818,32.23
685844,806,32.23
685859,795,32.87
685874,781,33.19
685890,769,33.19
685906,753,33.19
685921,744,32.23
685937,738,33.19
685952,733,32.55
685967,736,32.87
685982,734,32.55
685997,738,33.52
686012,737,32.55
686028,739,33.52
686043,739,32.55
686058,740,33.19
686073,738,32.55
686088,735,32.55
686103,736,32.87
686118,737,33.19
686133,732,32.23
686148,739,32.87
686163,734,31.90
686178,733,32.87
686193,734,33.19
686208,731,32.87
686223,728,32.23
686238,725,32.55
686253,729,32.87
686268,745,33.52
686283,765,32.87
686298,786,32.87
686313,806,32.55
686328,826,33.19
686343,840,33.84
686358,841,33.19
686373,842,33.52
686388,834,33.19
686403,828,33.19
686418,815,33.84
686433,807,32.87
686448,799,33.19
686463,787,33.19
686478,774,32.23
686493,768,32.23
686508,757,32.87
686523,750,32.55
686538,741,33.19
686553,738,32.87
686568,735,32.23
686583,734,32.23
686598,739,32.87
686613,738,33.52
686628,742,32.87
686643,750,33.19
686658,751,33.19
686673,747,32.23
686688,752,32.87
686703,751,32.87
686718,750,32.55
686733,747,32.55
686748,745,32.87
686763,744,33.19
686778,736,32.55
686793,733,32.87
686808,728,32.87
686823,722,33.19
686838,727,32.87
686853,736,33.52
686868,755,32.55
686883,773,31.26
686898,795,31.90
686913,815,33.19
686928,828,33.19
686943,827,32.87
686958,837,32.87
686973,829,33.19
686988,822,32.87
687003,814,32.87
687018,802,33.19
687033,795,33.19
687048,780,32.87
687063,764,32.87
687078,758,33.19
687093,748,33.19
687108,743,32.55
687123,740,32.87
687138,736,32.55
687153,743,33.19
687168,742,32.87
687183,744,33.52
687198,749,32.87
687213,752,33.19
687228,755,32.55
687243,756,32.23
687258,753,33.19
687273,748,32.23
687288,741,33.52
687303,734,33.52
687318,730,32.23
687333,726,33.19
687348,724,33.84
687363,726,32.55
687378,724,32.23
687393,729,32.55
687408,726,32.87
687423,728,32.23
687438,734,32.55
687453,751,33.52
687468,771,33.52
687483,798,32.87
687498,814,32.87
687513,829,32.87
687528,842,32.87
687543,847,33.19
687558,841,33.52
687573,834,32.87
687588,820,32.87
687603,807,32.87
687618,800,32.87
687633,785,32.87
687648,776,31.90
687663,767,32.55
687678,761,32.87
687693,758,32.55
687708,751,32.87
687723,750,32.87
687738,746,32.23
687753,745,32.87
687768,744,32.87
687783,749,32.87
687798,747,33.19
687813,748,32.55
687828,749,33.19
687843,744,32.23
687858,744,32.23
687873,738,32.55
687888,731,33.52
687903,730,33.19
687918,732,33.19
687933,731,32.87
687948,728,32.55
687963,728,33.19
687978,726,32.23
687993,725,33.52
688008,737,32.87
688023,737,31.90
688038,750,32.87
688053,770,32.87
688068,788,33.52
688083,803,32.23
688098,815,32.87
688113,828,33.52
688128,829,31.90
688143,828,32.55
688158,823,33.19
688173,813,33.19
688188,798,32.55
688203,790,33.19
688218,773,32.87
688233,761,32.87
688248,752,33.19
688263,745,33.84
688278,742,32.55
688293,736,32.87
688308,736,32.23
688323,732,31.90
688338,727,32.87
688353,726,33.19
688368,730,32.87
688383,734,33.19
688398,740,32.55
688413,744,33.52
688428,748,32.55
688443,752,32.87
688458,752,31.90
688473,749,33.19
688488,735,33.84
688503,740,32.55
688518,737,32.87
688533,731,33.19
688548,730,32.23
688563,731,32.55
688578,734,32.23
688593,748,32.87
688608,762,32.55
688623,782,32.87
688638,799,33.52
688653,814,33.19
688668,824,32.23
688683,834,33.52
688698,835,33.52
688713,834,31.90
688728,829,32.87
688743,821,32.87
688758,809,32.87
688773,791,33.19
688788,780,32.87
688803,763,33.19
688818,752,31.90
688833,744,32.55
688848,738,32.55
688863,737,32.55
688878,742,33.19
688893,738,32.55
688908,743,33.19
688923,742,32.87
688938,745,33.19
688953,746,33.19
688968,745,32.55
688983,750,33.19
688998,744,33.19
689013,743,33.19
689028,737,33.19
689043,744,33.19
689058,740,32.55
689073,736,32.55
689088,729,33.52
689103,724,32.23
689118,723,32.55
689133,725,32.87
689148,729,32.87
689163,738,31.90
689178,756,32.23
689193,777,32.87
689208,799,32.87
689223,816,31.90
689238,829,33.52
689253,837,32.87
689268,844,32.87
689283,839,32.23
689298,834,33.52
689313,827,33.52
689328,821,33.52
689343,807,32.87
689358,791,32.87
689373,774,32.55
689388,759,33.19
689403,744,33.19
689418,736,32.23
689433,727,33.19
689448,730,32.55
689463,731,32.55
689478,736,32.87
689493,737,31.90
689508,740,32.23
689523,742,33.19
689538,744,32.55
689553,746,32.55
689568,750,32.55
689583,748,31.90
689598,748,33.19
689613,745,33.19
689628,747,33.19
689643,740,32.87
689658,738,32.55
689673,739,32.55
689688,728,32.23
689703,727,32.23
689718,729,32.55
689733,742,33.19
689748,753,33.52
689763,779,32.87
689778,803,32.87
689793,828,32.87
689808,845,32.87
689823,852,32.87
689838,854,32.23
689853,852,33.52
689868,846,32.87
689883,837,32.23
689898,826,32.87
689913,811,32.23
689928,802,33.52
689943,782,32.55
689958,764,32.23
689973,752,32.87
689988,740,32.87
690003,733,32.55
690018,731,32.87
690033,734,32.87
690048,731,35.13
690063,737,33.19
690078,739,32.87
690093,739,33.19
690108,740,32.87
690123,741,33.19
690138,740,32.55
690153,744,33.19
690168,744,32.87
690183,745,32.87
690198,751,32.55
690213,743,33.52
690228,745,32.87
690243,743,32.55
690258,736,32.87
690273,733,32.87
690288,728,32.55
690303,730,32.87
690318,739,31.90
690333,755,33.84
690348,781,33.19
690363,801,32.87
690378,823,32.55
690393,835,32.87
690408,841,33.19
690423,850,32.87
690438,842,32.55
690453,834,32.23
690468,825,33.52
690483,809,33.19
690498,801,33.52
690513,789,33.19
690528,775,33.19
690543,762,32.87
690558,747,32.87
690573,742,32.87
690588,737,32.23
690603,738,31.58
690618,741,33.19
690633,745,32.55
690648,746,32.55
690663,748,33.52
690678,748,32.55
690693,751,32.23
690708,751,32.87
690723,746,32.87
690738,741,31.90
690753,738,33.19
690768,736,32.55
690783,736,32.23
690798,734,33.52
690813,733,32.55
690828,734,32.23
690843,734,33.52
690858,730,32.23
690873,725,33.52
690888,725,32.23
690903,732,32.55
690918,746,32.87
690933,767,33.19
690948,794,33.19
690963,812,33.19
690978,826,32.55
690993,836,32.23
691008,838,31.90
691023,843,32.87
691038,829,32.55
691053,815,32.87
691068,808,33.19
691083,794,33.19
691098,783,32.55
691113,775,32.23
691128,763,32.87
691143,755,33.84
691158,746,32.87
691173,739,32.87
691188,732,32.87
691203,737,32.23
691218,733,32.55
691233,733,33.19
691248,737,33.19
691263,740,33.19
691278,741,33.52
691293,745,32.55
691308,742,33.52
691323,738,32.87
691338,739,32.87
691353,732,32.23
691368,733,32.23
691383,730,32.55
691398,730,33.19
691413,734,32.87
691428,728,32.23
691443,729,32.55
691458,727,32.87
691473,727,33.19
691488,733,33.19
691503,749,32.55
691518,769,33.19
691533,795,32.55
691548,810,32.87
691563,829,32.55
691578,838,32.87
691593,840,33.19
691608,836,33.19
691623,824,33.19
691638,816,32.87
691653,804,33.19
691668,790,33.19
691683,780,32.55
691698,767,32.55
691713,755,32.87
691728,746,32.87
691743,744,32.55
691758,735,32.87
691773,737,32.87
691788,732,32.23
691803,733,32.55
691818,735,32.87
691833,736,32.87
691848,742,33.52
691863,744,32.87
691878,746,32.23
691893,746,32.87
691908,744,32.55
691923,738,34.16
691938,737,33.19
691953,743,33.19
691968,735,32.55
691983,732,32.23
691998,730,32.87
692013,727,32.55
692028,725,32.55
692043,728,32.55
692058,726,32.87
692073,736,33.19
692088,752,32.87
692103,772,32.87
692118,792,32.55
692133,812,32.87
692148,825,33.19
692163,838,32.87
692178,840,31.90
692193,839,33.19
692208,835,32.23
692223,825,33.19
692238,809,32.87
692253,793,33.19
692268,778,33.19
692283,768,32.55
692298,756,32.87
692313,744,32.87
692328,738,32.55
692343,735,32.23
692358,729,33.52
692373,730,33.19
692388,730,33.19
692403,730,32.87
692418,730,32.87
692433,734,33.19
692448,740,33.19
692463,738,32.55
692478,740,31.90
692493,743,32.87
692508,744,32.87
692523,737,32.23
692538,733,32.55
692553,727,32.87
692568,725,32.87
692583,723,32.55
692598,723,33.19
692613,725,32.23
692628,726,33.19
692643,734,32.87
692658,740,33.52
692673,757,32.55
692688,777,32.55
692703,799,33.19
692718,814,33.19
692733,826,32.55
692748,829,32.55
692763,830,32.55
692778,827,32.87
692793,823,32.87
692808,812,32.55
692823,801,32.55
692838,787,33.19
692853,768,33.19
692868,752,32.87
692883,737,32.87
692898,726,32.55
692913,720,31.90
692928,725,32.87
692943,737,33.19
692958,750,32.87
692973,763,32.87
692988,783,32.87
693003,790,32.87
693018,788,31.90
693033,782,33.19
693048,772,33.19
693063,757,33.19
693078,741,32.55
693093,729,33.52
693108,717,32.55
693123,711,33.19
693138,706,32.55
693153,707,32.55
693168,708,32.87
693183,707,32.87
693198,710,32.87
693213,713,32.23
693228,719,32.87
693243,729,32.23
693258,743,32.23
693273,763,32.23
693288,780,33.19
693303,802,32.55
693318,821,33.52
693333,834,33.52
693348,845,32.55
693363,846,32.87
693378,842,33.52
693393,835,33.19
693408,821,32.87
693423,808,33.19
693438,802,33.19
693453,786,32.23
693468,773,32.55
693483,766,32.87
693498,756,32.87
693513,749,33.52
693528,746,31.90
693543,751,32.55
693558,740,32.87
693573,738,32.55
693588,741,32.87
693603,739,32.87
693618,743,33.52
693633,748,32.87
693648,747,32.87
693663,757,32.87
693678,751,33.19
693693,752,32.87
693708,746,32.87
693723,741,32.23
693738,737,32.87
693753,730,32.87
693768,731,32.87
693783,725,33.19
693798,723,32.87
693813,727,32.87
693828,732,32.55
693843,751,32.87
693858,765,32.87
693873,779,33.19
693888,801,32.55
693903,812,33.52
693918,830,32.87
693933,837,33.52
693948,841,31.90
693963,838,32.55
693978,836,33.19
693993,823,33.52
694008,815,32.55
694023,801,32.87
694038,779,33.19
694053,770,32.23
694068,758,32.23
694083,748,32.55
694098,745,32.87
694113,738,32.23
694128,738,31.90
694143,738,33.19
694158,736,32.87
694173,740,32.87
694188,741,32.23
694203,743,33.19
694218,741,33.19
694233,739,32.87
694248,740,33.52
694263,739,32.55
694278,740,32.55
694293,741,31.90
694308,741,32.55
694323,737,33.19
694338,737,32.55
694353,727,33.19
694368,732,32.55
694383,734,32.55
694398,727,32.55
694413,732,32.55
694428,740,33.19
694443,755,32.23
694458,777,32.87
694473,797,32.87
694488,814,32.55
694503,824,32.55
694518,830,32.55
694533,836,32.87
694548,835,32.55
694563,835,33.19
694578,828,31.90
694593,817,32.87
694608,805,33.52
694623,793,33.19
694638,781,32.87
694653,762,32.23
694668,753,33.19
694683,746,32.87
694698,741,32.55
694713,740,32.23
694728,749,32.55
694743,743,33.52
694758,744,33.19
694773,743,33.19
694788,744,33.52
694803,743,33.19
694818,742,32.87
694833,740,32.55
694848,740,33.52
694863,743,31.90
694878,744,32.87
694893,744,32.23
694908,742,32.23
694923,737,32.23
694938,733,32.87
694953,733,33.19
694968,726,32.87
694983,730,32.55
694998,728,33.52
695013,730,32.87
695028,747,33.19
695043,762,33.19
695058,786,32.23
695073,813,32.55
695088,824,33.19
695103,837,33.19
695118,842,32.87
695133,844,32.23
695148,842,32.87
695163,832,33.19
695178,822,31.90
695193,811,32.23
695208,801,32.87
695223,785,32.87
695238,773,32.55
695253,759,32.55
695268,748,32.55
695283,747,32.87
695298,740,32.87
695313,737,33.19
695328,738,33.19
695343,743,32.87
695358,738,32.87
695373,743,32.87
695388,748,32.87
695403,747,33.19
695418,744,33.52
695433,744,32.55
695448,747,32.55
695464,748,33.19
695479,743,32.23
695494,747,32.87
695509,745,33.19
695524,740,32.55
695539,736,33.19
695555,729,32.55
695570,726,32.23
695585,723,33.52
695600,724,32.23
695615,735,32.23
695630,752,33.19
695646,768,32.55
695662,798,32.87
695678,815,32.23
695694,831,32.87
695710,843,32.55
695725,843,32.55
695741,842,32.55
695757,827,32.23
695772,824,32.87
695788,811,32.87
695804,792,32.87
695819,778,33.19
695835,762,34.16
695850,751,32.23
695866,746,33.52
695882,740,32.23
695897,740,33.19
695913,740,32.23
695929,742,32.23
695944,747,32.87
695960,747,32.87
695976,749,33.19
695992,749,32.55
696008,747,32.55
696024,749,33.52
696040,749,33.52
696056,744,33.52
696072,741,33.19
696088,739,32.23
696104,734,32.55
696120,728,32.23
696136,726,33.52
696152,728,32.55
696168,723,32.87
696184,715,31.90
696200,732,32.87
696216,742,33.19
696232,760,32.55
696247,782,33.19
696263,806,32.87
696279,823,32.55
696295,834,32.87
696311,844,33.19
696327,840,33.19
696342,835,33.19
696358,824,32.55
696374,809,33.19
696390,795,32.23
696406,787,32.55
696422,770,32.55
696437,756,32.55
696453,741,32.55
696468,730,33.84
696484,721,32.87
696500,723,32.87
696515,720,32.87
696531,721,32.55
696546,723,33.52
696562,727,33.52
696578,735,32.87
696593,741,32.55
696609,745,33.19
696624,751,32.55
696640,758,33.19
696656,755,34.16
696671,757,33.19
696687,753,33.52
696702,743,32.55
696717,737,33.52
696732,738,32.55
696747,734,32.87
696762,727,32.87
696778,731,33.19
696793,742,32.55
696808,764,32.23
696823,786,33.19
696838,811,33.52
696853,828,32.55
696868,843,33.19
696883,850,32.87
696898,849,33.52
696913,843,32.55
696928,834,32.23
696943,824,32.87
696959,807,33.84
696974,789,32.23
696989,776,33.84
697004,758,32.87
697019,749,32.87
697034,738,32.87
697049,732,32.23
697064,730,32.23
697079,732,33.19
697094,737,32.87
697109,739,32.23
697124,737,32.87
697139,741,32.55
697154,740,33.19
697169,737,33.19
697184,735,32.87
697199,735,32.87
697214,738,31.90
697229,742,32.87
697244,740,32.23
697259,743,32.87
697274,739,33.84
697289,734,31.90
697304,729,33.19
697319,725,32.23
697334,730,32.87
697349,733,32.23
697364,749,32.55
697379,772,32.87
697394,795,32.87
697409,815,33.19
697424,830,33.52
697439,837,32.55
697454,842,32.55
697469,834,31.58
697484,828,31.90
697499,819,33.19
697514,815,33.19
697529,803,34.16
697544,793,32.87
697559,780,33.52
697574,774,32.55
697589,761,32.23
697604,749,33.19
697619,749,32.87
697634,738,32.23
697649,739,33.52
697664,744,34.80
697679,744,33.19
697694,751,32.87
697709,753,32.23
697724,753,33.19
697739,751,31.90
697754,750,32.55
697769,745,33.19
697784,744,32.55
697799,742,33.19
697814,742,33.52
697830,741,32.55
697845,739,32.87
697860,738,32.87
697875,736,32.87
697890,738,32.87
697905,748,32.87
697921,763,32.87
697936,781,31.90
697951,801,32.23
697966,819,34.80
697981,835,32.23
697996,848,32.55
698012,848,32.23
698028,846,33.52
698043,844,33.52
698059,833,32.87
698074,818,32.87
698089,803,33.19
698104,788,32.87
698120,772,32.87
698136,761,33.19
698151,747,32.55
698167,738,31.90
698182,736,32.55
698198,746,32.87
698214,738,33.19
698229,741,32.23
698245,753,33.52
698261,748,32.23
698276,754,30.94
698292,750,32.23
698307,751,32.55
698323,746,33.19
698339,746,32.87
698354,732,32.87
698370,732,32.23
698386,729,32.55
698401,729,32.87
698417,727,32.87
698432,728,33.19
698448,725,33.19
698464,732,32.23
698479,748,33.19
698495,769,32.55
698511,793,32.87
698527,812,32.87
698543,832,32.87
698559,839,31.58
698575,842,32.23
698591,838,33.19
698607,827,33.84
698623,820,32.55
698639,805,32.55
698655,791,32.87
698671,783,33.19
698687,771,32.55
698703,752,32.87
698719,745,32.87
698734,734,32.55
698750,727,33.19
698766,730,33.19
698782,731,32.55
698798,732,32.55
698814,733,32.23
698829,739,32.87
698845,738,33.19
698861,737,33.52
698877,741,32.23
698893,740,32.23
698909,744,33.19
698924,746,33.19
698940,736,33.19
698955,738,32.55
698971,732,32.23
698987,730,32.23
699002,728,33.19
699018,737,32.87
699033,753,32.87
699049,772,32.87
699064,793,34.48
699079,815,33.52
699095,828,33.19
699110,845,33.19
699126,844,32.87
699141,842,31.90
699157,837,32.55
699173,825,32.87
699188,813,33.19
699204,792,32.87
699219,776,34.48
699234,761,32.87
699249,744,32.87
699265,744,32.87
699280,738,33.19
699295,739,33.19
699310,738,32.23
699325,738,32.55
699340,742,32.87
699355,741,33.19
699370,740,32.55
699385,737,33.19
699400,740,32.55
699415,737,33.52
699430,742,33.19
699446,738,32.87
699461,740,32.87
699476,741,32.87
699491,738,33.19
699506,737,32.87
699521,731,32.87
699536,726,32.55
699551,726,32.87
699566,734,32.87
699581,750,32.87
699596,770,32.87
699611,794,32.55
699626,815,33.52
699641,829,33.52
699656,840,32.87
699671,841,32.87
699686,838,32.55
699701,829,33.19
699716,823,33.19
699731,807,32.23
699746,796,33.52
699761,784,32.87
699776,773,32.23
699791,761,32.55
699806,749,33.52
699821,738,32.55
699836,733,32.87
699851,731,32.87
699866,729,32.55
699881,730,31.90
699896,733,32.23
699911,737,32.87
699926,743,32.87
699941,746,33.19
699956,746,33.84
699971,746,32.55
699986,745,32.87
700001,738,33.52
700016,739,33.19
700031,733,32.87
700046,730,32.87
700061,731,31.90
700076,732,32.87
700091,730,32.23
700106,731,32.55
700121,745,32.87
700136,757,33.52
700151,772,32.87
700166,796,32.23
700181,817,32.87
700196,834,33.19
700211,845,32.87
700226,848,32.87
700241,843,33.19
700257,835,33.19
700272,825,32.23
700287,809,32.55
700302,792,32.87
700317,772,32.87
700332,760,32.87
700347,748,32.23
700362,741,33.19
700378,730,33.19
700393,731,32.55
700408,731,33.19
700423,734,32.55
700438,736,32.55
700453,734,33.19
700469,741,32.87
700485,743,32.87
700500,744,33.19
700516,740,33.19
700531,740,32.87
700547,739,32.55
700563,737,32.87
700578,735,32.87
700594,733,33.19
700610,729,32.87
700625,730,32.55
700641,727,32.55
700656,731,32.87
700672,737,32.87
700688,748,32.23
700704,769,32.55
700720,787,32.87
700736,816,32.23
700751,828,32.87
700767,841,33.19
700783,842,33.19
700798,841,32.55
700814,833,32.87
700830,822,33.19
700846,812,32.87
700862,800,33.19
700878,782,33.19
700894,767,33.52
700910,752,33.19
700926,742,32.87
700942,735,33.19
700958,727,32.55
700974,736,32.55
700989,734,32.55
701005,734,34.16
701021,735,32.23
701037,738,32.87
701053,741,33.19
701069,737,32.55
701085,734,32.87
701101,729,33.52
701117,723,33.52
701133,723,33.52
701148,713,33.19
701164,709,33.19
701180,714,32.87
701196,716,32.23
701212,720,32.87
701228,729,33.19
701243,740,32.87
701259,754,32.87
701274,773,32.87
701290,793,32.23
701306,814,32.87
701321,829,32.55
701337,841,33.19
701353,844,32.23
701368,842,32.87
701384,833,32.55
701399,828,32.55
701415,817,33.19
701430,809,33.52
701446,794,32.87
701462,778,31.90
701477,764,32.55
701493,756,33.19
701508,747,32.55
701523,741,32.87
701539,735,32.23
701554,734,32.87
701570,732,32.87
701585,731,33.19
701601,727,32.87
701617,736,33.19
701632,733,33.84
701648,735,32.87
701663,737,32.87
701678,736,31.90
701693,738,33.19
701709,737,32.87
701724,734,33.52
701739,734,33.52
701754,733,32.87
701769,730,32.87
701784,726,32.87
701799,725,33.52
701814,740,33.19
701829,759,33.19
701844,796,33.19
701859,817,33.19
701874,833,32.23
701890,842,32.55
701905,838,32.23
701920,834,33.19
701935,825,32.87
701950,815,32.55
701965,802,32.87
701980,796,31.90
701995,791,31.90
702010,792,33.19
702025,781,32.55
702040,775,32.87
702055,763,32.87
702070,753,32.87
702085,745,32.87
702100,738,33.52
702115,734,32.55
702130,730,33.19
702145,738,32.87
702160,730,32.55
702175,729,32.55
702190,729,33.52
702205,731,33.19
702220,735,32.87
702235,733,32.87
702250,732,33.19
702265,732,32.87
702280,729,32.23
702295,733,33.52
702310,733,32.55
702325,726,32.87
702340,734,32.87
702355,727,32.87
702370,736,32.55
702385,741,33.52
702400,755,32.87
702415,768,32.87
702430,778,33.19
702445,800,33.19
702460,808,32.55
702475,811,32.23
702490,811,33.19
702505,804,32.55
702520,792,32.55
702535,783,32.87
702550,777,32.87
702565,770,31.90
702580,769,33.19
702595,769,33.19
702610,768,32.87
702625,767,32.55
702640,765,33.52
702655,758,33.19
702670,748,32.23
702685,738,32.87
702700,735,32.87
702715,734,32.55
702730,726,32.23
702745,723,32.87
702760,723,33.19
702775,723,32.87
702790,724,32.55
702805,726,32.23
702820,728,32.55
702835,727,32.23
702850,728,31.90
702865,730,33.19
702880,733,32.87
702895,730,33.19
702910,733,33.19
702925,732,32.23
702940,730,32.55
702955,728,32.55
702970,730,32.55
702985,736,33.19
703000,751,32.87
703015,769,32.55
703030,791,32.87
703045,809,32.87
703060,826,32.55
703075,832,33.52
703090,842,33.52
703105,841,32.87
703120,827,33.19
703135,821,33.19
703150,800,32.87
703165,785,32.87
703180,771,33.19
703195,757,32.23
703210,748,32.55
703225,739,32.87
703240,731,33.19
703255,727,32.87
703270,728,32.55
703285,724,32.55
703300,726,33.19
703315,724,33.52
703330,729,33.19
703345,734,32.55
703360,735,31.90
703375,734,32.23
703390,734,32.55
703405,734,32.55
703420,732,32.23
703435,730,32.87
703450,729,32.87
703465,723,32.55
703480,719,32.87
703495,719,33.19
703510,723,33.19
703525,725,33.19
703540,736,32.55
703555,750,32.87
703570,768,33.19
703585,782,33.19
703600,801,33.19
703615,812,32.55
703630,823,33.19
703645,830,33.52
703660,833,32.55
703675,832,33.52
703690,832,32.87
703705,816,33.19
703720,806,33.52
703735,790,33.19
703750,773,32.87
703765,764,33.19
703780,749,32.55
703795,739,33.52
703810,736,32.55
703825,736,32.87
703840,732,32.55
703855,737,33.19
703870,730,33.19
703885,729,32.23
703900,731,32.87
703915,729,32.87
703930,732,32.87
703945,730,33.19
703960,731,32.55
703975,732,31.90
703990,737,32.87
704005,735,32.55
704020,732,33.19
704035,729,32.23
704050,726,32.87
704065,727,33.19
704080,722,33.52
704095,725,32.55
704110,732,33.19
704125,751,33.19
704140,774,34.48
704155,788,33.19
704170,803,32.23
704185,818,32.87
704200,824,32.23
704215,825,33.19
704230,830,33.19
704245,822,33.52
704260,813,32.87
704275,804,31.90
704290,797,32.55
704305,783,32.87
704320,768,32.23
704335,752,33.19
704350,742,33.19
704365,735,32.87
704380,732,33.19
704395,730,32.55
704410,729,32.87
704425,733,32.55
704440,735,32.55
704455,734,33.19
704470,735,32.23
704485,734,32.55
704500,733,32.87
704515,730,32.55
704530,733,32.87
704545,738,32.23
704560,737,32.55
704575,737,33.19
704590,739,33.19
704605,729,33.52
704620,726,33.19
704635,725,32.87
704650,726,32.87
704665,739,32.23
704680,754,32.55
704695,775,32.87
704710,791,32.55
704725,807,32.87
704740,820,32.87
704755,827,33.84
704770,836,33.19
704785,823,32.23
704800,823,33.52
704815,809,33.19
704830,799,32.87
704845,790,32.87
704860,776,32.55
704875,773,33.52
704890,758,33.19
704905,749,33.19
704920,737,32.87
704935,730,32.87
704950,730,33.19
704965,731,33.19
704980,729,33.52
704995,732,32.87
705010,736,32.55
705025,739,32.87
705040,744,32.87
705055,742,33.19
705070,736,33.52
705085,738,33.52
705100,736,32.55
705115,735,32.55
705130,733,32.23
705145,733,32.87
705160,731,33.52
705175,729,32.55
705190,737,33.19
705205,737,32.87
705220,745,31.90
705235,762,32.87
705250,773,32.87
705265,791,31.90
705280,806,31.90
705295,817,33.52
705310,822,33.52
705325,826,33.52
705340,824,32.23
705355,814,33.84
705370,806,32.87
705385,791,33.19
705400,772,33.19
705415,766,33.19
705430,750,31.90
705445,741,32.23
705460,734,33.52
705475,735,32.55
705490,734,32.55
705505,734,32.87
