881539,516,33.52
881554,512,32.23
881569,516,33.84
881584,513,32.55
881599,519,34.16
881614,521,34.16
881629,523,33.52
881644,522,32.23
881659,520,33.52
881674,518,32.23
881689,512,32.23
881704,509,34.16
881719,516,34.16
881734,508,33.52
881749,509,32.23
881764,513,32.87
881779,514,33.84
881794,513,33.84
881809,514,33.84
881824,512,34.16
881839,505,32.87
881854,509,31.90
881869,512,33.84
881884,512,33.52
881899,512,31.90
881914,513,33.84
881929,516,32.55
881944,514,34.16
881959,513,32.55
881974,515,33.19
881989,511,32.23
882004,508,33.52
882019,510,33.52
882034,509,34.16
882049,508,32.87
882064,506,33.19
882079,511,33.84
882094,509,32.23
882109,512,34.16
882124,511,33.52
882139,512,33.52
882154,509,33.19
882169,499,33.84
882184,512,33.84
882199,512,32.23
882214,507,31.90
882229,513,33.84
882244,508,32.55
882259,512,32.55
882274,510,32.23
882289,514,33.19
882304,516,32.87
882319,513,33.84
882334,513,32.23
882349,518,33.84
882364,517,33.52
882379,510,33.84
882394,515,32.23
882409,515,33.52
882424,507,32.55
882439,513,33.84
882454,500,33.84
882469,507,33.84
882484,503,32.55
882499,495,33.19
882514,506,33.52
882529,509,33.84
882544,511,33.84
882559,510,33.52
882574,512,33.52
882589,503,32.87
882604,510,34.16
882619,505,32.55
882634,511,34.16
882649,506,33.19
882664,513,33.84
882679,512,33.84
882694,518,33.52
882709,517,33.84
882724,515,32.87
882739,513,33.84
882754,514,33.84
882769,511,33.52
882784,505,33.52
882799,515,33.52
882814,509,33.52
882829,516,34.16
882844,515,33.84
882859,517,33.52
882874,518,33.84
882889,517,33.84
882904,515,33.84
882919,515,33.52
882934,517,33.52
882949,507,32.87
882964,514,33.84
882979,515,33.19
882994,507,32.23
883009,509,32.23
883024,503,33.19
883039,508,32.55
883054,505,33.84
883069,506,33.84
883084,505,33.19
883099,506,33.84
883114,509,33.84
883129,510,33.52
883144,512,33.52
883159,507,33.84
883174,508,32.87
883189,506,33.52
883204,512,33.52
883219,511,34.16
883234,505,32.55
883249,514,33.52
883264,511,33.52
883279,514,32.23
883294,518,34.16
883309,520,33.52
883324,518,34.16
883339,519,33.84
883354,520,34.16
883369,516,33.52
883384,516,32.55
883399,517,34.16
883414,515,33.84
883429,512,32.55
883444,515,34.16
883459,508,32.23
883474,510,33.84
883489,508,34.16
883504,506,33.19
883519,511,34.16
883534,501,32.23
883549,507,33.84
883564,507,34.16
883579,504,33.19
883594,506,33.52
883609,508,33.84
883624,512,34.16
883639,513,33.19
883654,510,32.55
883669,510,33.84
883684,512,31.90
883699,510,33.19
883714,511,33.52
883729,506,32.55
883744,510,33.52
883759,520,33.84
883774,513,32.55
883789,513,33.52
883804,522,33.19
883819,521,33.84
883834,515,32.55
883849,523,33.84
883864,514,34.16
883879,516,33.52
883894,512,33.19
883909,513,34.16
883924,517,33.84
883939,519,33.84
883954,515,33.52
883969,515,32.23
883984,511,33.52
883999,512,33.84
884014,504,33.84
884029,513,33.52
884044,515,33.52
884059,516,32.55
884074,517,33.84
884089,510,32.55
884104,515,33.84
884119,514,34.16
884134,508,33.84
884149,513,32.87
884164,512,32.23
884179,516,32.23
884194,506,33.52
884209,513,33.84
884224,513,32.87
884239,511,34.16
884254,512,33.84
884269,510,31.90
884284,508,32.55
884299,503,32.55
884314,503,33.52
884329,511,32.55
884344,509,33.52
884359,505,33.84
884374,510,33.52
884389,510,33.52
884404,508,33.84
884419,508,32.87
884434,509,33.52
884449,512,34.16
884464,507,33.84
884479,516,34.48
884494,514,33.19
884509,515,33.84
884524,515,32.87
884539,513,34.16
884554,516,33.52
884569,506,32.87
884584,512,33.84
884599,509,33.84
884614,514,33.52
884629,515,32.23
884644,511,31.90
884659,511,32.55
884674,511,32.55
884689,508,33.19
884704,510,33.84
884719,510,33.52
884734,510,33.52
884749,503,33.84
884764,509,33.52
884779,514,33.19
884794,506,33.52
884809,516,34.16
884824,517,33.52
884839,506,33.84
884854,513,32.55
884869,511,33.84
884884,510,32.23
884899,511,32.55
884914,505,33.19
884929,510,33.19
884944,503,33.52
884959,503,33.84
884974,512,33.84
884989,508,32.23
885004,512,33.52
885019,502,34.16
885034,506,33.52
885049,500,32.55
885064,510,34.48
885079,507,33.84
885094,502,33.52
885109,503,33.52
885124,511,34.16
885139,504,33.52
885154,511,33.52
885169,509,34.16
885184,508,32.55
885199,514,33.52
885214,517,33.84
885229,519,33.52
885244,519,33.52
885259,514,32.55
885274,522,31.90
885289,521,33.52
885304,520,34.16
885319,517,33.52
885334,512,34.16
885349,516,34.16
885364,511,33.19
885379,512,33.84
885394,513,34.16
885409,511,33.52
885424,508,33.84
885439,508,32.23
885454,512,34.16
885469,506,31.90
885484,509,33.84
885499,512,32.55
885514,512,33.52
885529,508,33.52
885544,514,33.19
885559,514,33.84
885574,513,33.84
885589,504,33.52
885604,511,33.84
885619,510,34.16
885634,508,33.84
885649,501,32.87
885664,505,32.23
885679,504,33.52
885694,509,33.84
885709,510,33.52
885724,505,31.90
885739,508,33.84
885754,508,33.52
885769,509,33.84
885784,504,34.16
885799,502,32.55
885814,507,33.19
885829,502,32.87
885844,508,32.55
885859,502,32.55
885874,508,34.16
885889,507,33.84
885904,510,32.55
885919,510,32.87
885934,501,33.52
885949,510,33.84
885964,513,32.55
885979,516,33.19
885994,517,32.55
886009,520,33.52
886024,521,32.55
886039,520,31.90
886054,521,33.52
886069,520,33.84
886084,520,32.55
886099,511,32.23
886114,510,31.90
886129,508,33.19
886144,511,32.55
886159,508,33.84
886174,508,33.19
886189,506,33.84
886204,498,33.52
886219,504,33.52
886234,499,33.19
886249,510,31.90
886264,507,32.23
886279,506,33.84
886294,513,32.23
886309,514,31.90
886324,516,32.23
886339,524,34.16
886354,522,32.55
886369,519,34.16
886384,517,33.84
886399,516,33.84
886414,521,34.16
886429,519,34.16
886444,518,33.84
886459,512,31.90
886474,516,33.84
886489,508,32.87
886504,516,33.52
886519,512,33.84
886534,508,34.48
886549,508,33.84
886564,503,32.23
886579,506,32.55
886594,505,33.84
886609,507,32.23
886624,509,33.84
886639,506,33.84
886654,503,33.52
886669,500,33.84
886684,494,33.52
886699,501,33.84
886714,499,33.52
886729,500,33.84
886744,502,33.19
886759,504,33.84
886774,505,33.84
886789,503,33.84
886804,505,33.84
886819,504,33.52
886834,497,32.87
886849,499,33.19
886864,508,33.19
886879,513,32.87
886894,514,33.84
886909,518,32.23
886924,511,33.52
886939,510,33.84
886954,516,34.16
886969,515,34.16
886984,512,33.84
886999,505,33.52
887014,512,34.16
887029,513,33.19
887044,509,34.16
887059,513,33.84
887074,510,32.87
887089,507,33.84
887104,504,33.52
887119,512,33.19
887134,508,33.84
887149,503,33.52
887164,506,32.23
887179,504,33.52
887194,512,32.55
887209,512,31.90
887224,512,34.16
887239,515,32.55
887254,512,33.84
887269,510,33.52
887284,506,33.84
887299,508,33.52
887314,509,33.52
887329,509,33.84
887344,511,33.52
887359,512,33.84
887374,514,33.52
887389,506,33.84
887404,508,32.87
887419,511,33.84
887434,511,33.52
887449,510,33.84
887464,502,33.52
887479,512,33.52
887494,512,34.16
887509,515,33.84
887524,508,32.87
887539,518,33.84
887554,506,32.55
887569,512,33.52
887584,505,31.90
887599,506,34.48
887614,510,33.84
887629,506,32.23
887644,511,33.19
887659,515,33.84
887674,511,32.55
887689,518,31.90
887704,521,33.52
887719,518,34.48
887734,518,34.16
887749,517,33.19
887764,514,32.23
887779,509,32.23
887794,514,33.52
887809,516,34.16
887824,516,33.84
887839,515,33.84
887854,514,33.84
887869,513,33.52
887884,511,34.16
887899,509,33.84
887914,514,34.48
887929,515,33.52
887944,515,34.16
887959,507,32.87
887974,508,32.87
887989,515,34.16
888004,513,33.84
888019,512,33.52
888034,512,33.52
888049,510,34.16
888064,510,33.84
888079,510,33.84
888094,509,33.52
888109,512,33.84
888124,512,34.48
888139,514,33.84
888154,512,33.19
888169,503,33.84
888184,510,33.84
888199,506,34.16
888214,509,34.16
888229,511,32.55
888244,509,34.16
888259,508,32.23
888274,509,34.16
888289,505,33.52
888304,509,33.52
888319,510,33.19
888334,514,33.84
888349,512,32.55
888364,516,34.16
888379,517,33.84
888394,521,32.55
888409,520,34.16
888424,516,33.84
888439,521,33.52
888454,518,33.52
888469,510,33.19
888484,511,33.84
888499,504,32.87
888514,512,32.87
888529,511,33.52
888544,510,33.84
888559,512,33.84
888574,516,33.84
888589,512,33.52
888604,506,31.90
888619,509,33.84
888634,512,33.84
888649,504,33.84
888664,510,32.87
888679,512,32.55
888694,511,33.52
888709,514,32.87
888724,509,32.55
888739,514,33.52
888754,514,33.52
888770,513,34.16
888785,512,34.80
888800,508,33.52
888815,501,32.23
888830,507,33.52
888845,509,33.52
888861,503,32.55
888876,510,34.16
888891,510,33.84
888906,508,33.84
888921,504,33.52
888936,511,33.52
888952,502,33.19
888968,508,33.84
888983,509,34.16
888998,510,33.52
889013,506,32.23
889028,513,33.52
889043,509,33.84
889059,517,32.23
889074,518,33.19
889090,520,33.84
889105,519,33.19
889120,520,33.84
889136,517,33.84
889151,515,32.55
889167,513,34.16
889182,514,34.48
889197,509,34.16
889212,513,34.16
889227,506,32.55
889242,516,33.19
889258,514,33.84
889274,507,33.52
889290,514,32.23
889305,513,33.84
889320,507,34.16
889336,505,32.87
889352,514,33.52
889368,510,34.16
889384,507,32.55
889400,512,33.52
889415,509,33.84
889430,510,33.19
889445,509,33.84
889461,509,33.52
889476,506,33.52
889491,512,33.52
889506,507,33.84
889522,513,34.16
889538,507,33.52
889553,502,33.52
889569,512,34.16
889584,511,32.87
889599,507,34.16
889614,502,32.87
889630,507,32.23
889646,509,33.19
889661,504,32.87
889677,507,32.23
889692,511,33.84
889708,511,33.52
889724,511,33.52
889739,515,33.52
889755,514,34.16
889770,515,33.52
889786,512,32.55
889802,516,33.84
889817,515,32.87
889833,519,33.52
889848,520,33.84
889864,512,32.55
889880,516,33.84
889895,508,33.84
889911,516,34.16
889926,516,33.19
889941,514,31.90
889956,516,32.55
889971,510,32.55
889986,510,34.16
890002,512,33.84
890017,503,33.19
890032,509,33.84
890047,511,33.19
890062,509,34.48
890077,514,34.16
890092,512,34.16
890107,516,33.52
890122,509,32.23
890137,516,33.52
890152,506,33.19
890167,512,33.52
890183,510,33.84
890198,507,32.23
890213,509,31.58
890228,506,33.19
890243,512,33.84
890258,503,33.84
890273,511,34.48
890288,510,34.16
890303,508,32.55
890318,509,32.87
890333,509,33.52
890348,509,33.52
890363,509,32.23
890378,510,33.84
890393,511,33.84
890408,503,32.23
890423,512,33.84
890438,508,32.23
890453,513,33.84
890468,506,32.87
890483,507,33.84
890498,504,32.55
890513,508,32.23
890528,512,33.84
890543,516,33.52
890558,513,32.55
890573,518,33.84
890588,521,34.16
890603,513,32.23
890618,518,33.84
890633,509,32.87
890648,513,32.55
890663,513,32.55
890678,513,33.52
890693,513,33.52
890708,509,32.87
890723,507,33.52
890738,509,32.23
890753,513,33.19
890768,509,33.84
890783,509,33.19
890798,505,32.23
890813,511,34.16
890828,501,32.87
890843,504,33.19
890858,512,32.87
890873,516,33.84
890888,516,33.84
890903,514,34.16
890918,510,34.16
890933,510,33.19
890948,508,33.52
890963,508,33.84
890978,509,34.16
890993,509,33.52
891008,509,34.16
891023,508,34.16
891038,510,33.84
891053,510,32.87
891068,507,33.84
891083,502,33.52
891098,505,33.19
891113,508,33.19
891128,512,34.16
891143,511,33.52
891158,503,33.84
891173,507,32.23
891188,506,32.55
891203,511,33.84
891218,508,33.84
891233,502,32.55
891248,502,33.84
891263,505,32.87
891278,508,33.84
891293,513,33.84
891308,507,32.87
891323,514,34.16
891338,515,33.84
891353,516,34.16
891369,516,33.84
891384,514,33.84
891399,514,33.84
891414,514,33.19
891429,509,32.55
891444,513,33.84
891460,506,32.55
891475,507,32.55
891490,510,34.16
891505,509,32.55
891520,511,33.84
891535,507,32.23
891550,512,32.55
891565,510,32.23
891580,512,34.16
891595,506,32.55
891611,511,32.55
891626,513,33.84
891641,513,31.90
891656,518,33.52
891672,509,32.55
891688,515,33.84
891703,514,34.16
891719,511,32.23
891735,516,33.84
891750,502,33.52
891765,512,32.55
891780,502,33.84
891796,510,33.84
891811,504,34.16
891826,511,32.87
891842,513,33.84
891858,511,32.87
891874,512,33.52
891889,510,32.55
891905,511,33.52
891921,510,33.52
891936,510,33.84
891952,509,33.84
891967,509,33.52
891982,502,32.55
891997,501,33.52
892013,510,33.84
892029,510,33.52
892044,513,34.16
892060,506,32.87
892075,515,32.87
892091,518,32.55
892107,520,33.84
892122,513,33.19
892138,511,33.19
892153,517,33.52
892169,514,33.84
892185,512,33.52
892200,511,34.16
892216,505,33.84
892231,504,32.55
892247,508,33.19
892263,506,31.90
892278,507,34.16
892294,510,32.23
892309,504,33.19
892325,503,33.84
892341,512,34.16
892356,515,32.55
892372,515,33.84
892387,515,33.84
892402,512,33.84
892417,513,33.84
892433,512,33.84
892449,510,32.87
892464,509,33.84
892480,503,31.90
892495,508,33.19
892510,505,33.84
892526,508,33.52
892541,510,33.52
892556,512,33.19
892571,514,32.55
892586,509,33.84
892601,503,32.23
892616,509,34.16
892631,500,33.19
892646,506,31.90
892661,507,33.52
892676,506,33.52
892691,511,33.84
892706,509,31.90
892721,503,32.23
892736,511,34.16
892752,507,33.84
892767,499,33.52
892782,507,33.84
892797,508,33.52
892812,509,33.84
892827,514,33.52
892842,511,32.23
892857,521,33.52
892872,522,33.52
892887,515,34.16
892902,516,32.23
892917,521,33.52
892933,517,33.84
892948,516,33.84
892963,512,33.52
892978,511,33.52
892993,509,33.84
893008,511,34.16
893023,511,33.52
893038,512,32.55
893053,510,33.84
893068,502,32.23
893083,507,33.84
893098,503,32.23
893113,507,34.80
893128,506,33.84
893143,500,32.87
893158,507,34.16
893173,510,33.52
893188,508,34.16
893203,512,34.16
893218,512,33.84
893233,511,32.55
893248,508,31.90
893263,511,34.16
893278,512,33.84
893293,513,33.52
893308,521,33.52
893323,519,33.52
893338,521,33.52
893353,517,33.84
893368,514,33.84
893383,513,34.16
893398,515,33.52
893413,509,33.52
893428,508,33.84
893443,502,33.19
893458,511,34.16
893473,511,33.84
893488,512,33.52
893503,509,32.55
893518,510,33.52
893533,514,33.84
893548,510,32.87
893563,511,33.84
893578,505,33.84
893593,513,34.16
893608,507,32.23
893623,516,31.90
893638,515,32.23
893653,512,31.90
893668,514,33.52
893683,511,33.84
893698,509,32.87
893713,505,32.23
893728,507,32.87
893743,500,33.52
893758,499,33.52
893773,503,33.52
893788,508,33.84
893803,505,32.23
893818,509,33.84
893834,507,33.84
893849,506,33.84
893864,498,33.84
893879,498,33.84
893894,511,32.23
893909,510,34.16
893924,516,32.55
893939,514,34.16
893955,510,33.52
893970,516,33.84
893985,512,33.84
894000,508,32.55
894015,503,33.84
894030,507,33.84
894046,503,33.52
894061,506,34.16
894076,505,33.84
894091,507,34.16
894106,507,33.19
894121,507,34.16
894137,509,32.55
894153,507,33.52
894168,501,31.90
894184,508,33.84
894199,501,32.55
894215,506,33.52
894231,510,32.55
894246,510,33.84
894261,513,33.84
894276,510,32.23
894292,509,31.90
894307,520,33.52
894323,520,33.84
894339,513,33.19
894354,523,32.87
894370,521,32.87
894386,519,32.55
894401,520,33.19
894416,522,34.16
894431,520,33.52
894447,518,33.52
894462,519,33.52
894478,517,32.23
894494,516,32.23
894510,514,33.52
894526,514,33.52
894542,512,33.84
894558,507,33.84
894574,511,34.16
894590,514,34.16
894605,516,33.84
894621,516,33.19
894637,510,32.23
894653,514,33.52
894669,516,33.19
894685,512,33.19
894701,513,32.87
894717,514,34.16
894733,514,34.16
894749,503,33.19
894765,509,33.52
894781,507,33.84
894796,502,32.23
894812,505,33.84
894828,506,33.84
894844,507,33.52
894859,507,33.84
894874,511,32.55
894889,511,32.23
894905,514,33.52
894920,507,33.52
894936,514,34.16
894951,512,31.90
894967,508,33.84
894982,516,33.52
894997,514,33.84
895012,511,33.84
895027,512,32.23
895043,510,33.52
895058,510,33.52
895073,507,33.52
895088,504,32.55
895103,510,33.84
895118,510,32.55
895134,509,32.87
895149,502,33.52
895164,503,33.19
895179,512,33.19
895195,511,33.84
895210,511,33.52
895226,510,32.23
895242,516,34.16
895257,520,33.84
895273,522,33.84
895288,511,33.84
895303,519,33.52
895318,518,32.87
895333,514,33.52
895348,514,34.16
895363,512,32.23
895378,513,33.52
895393,514,32.55
895408,511,31.90
895424,508,32.55
895439,515,33.84
895454,516,34.16
895469,510,32.23
895484,514,33.52
895499,514,33.84
895515,512,34.16
895530,511,33.84
895545,510,33.84
895560,509,33.84
895575,507,33.52
895590,511,33.84
895605,510,33.84
895620,512,33.52
895635,510,33.52
895650,509,33.84
895665,509,34.16
895680,506,33.52
895695,507,32.87
895710,511,33.84
895725,510,32.55
895740,502,34.16
895755,510,34.16
895770,508,31.90
895785,512,33.84
895800,508,32.55
895815,510,34.16
895830,516,32.55
895845,522,33.84
895860,524,33.84
895875,526,34.80
895890,531,33.52
895905,532,33.84
895920,530,33.19
895935,530,33.52
895950,521,33.84
895965,522,34.16
895980,514,34.48
895995,510,33.84
896010,506,33.84
896025,499,32.55
896040,504,33.52
896055,506,33.84
896070,505,32.55
896085,508,32.87
896100,504,34.16
896115,505,33.84
896130,505,33.84
896145,508,34.16
896160,510,32.55
896175,511,34.16
896190,510,31.90
896205,513,34.16
896220,513,33.52
896235,506,32.55
896250,510,32.55
896265,510,33.19
896280,502,32.23
896295,507,32.23
896310,506,32.87
896325,505,33.52
896340,502,33.84
896355,503,31.90
896370,503,33.52
896385,511,33.52
896400,511,34.16
896415,509,33.52
896430,509,33.19
896445,507,33.52
896460,505,34.16
896475,510,32.87
896490,511,33.52
896505,514,33.52
896520,510,32.55
896535,520,32.87
896550,522,33.19
896565,520,33.84
896580,518,33.52
896595,513,31.90
896610,511,32.23
896625,518,33.52
896640,514,33.52
896655,515,33.19
896670,518,33.84
896685,516,33.52
896700,513,33.84
896715,508,31.90
896730,512,31.26
896745,503,33.52
896760,509,33.52
896775,512,34.16
896790,505,31.90
896805,512,34.16
896820,512,34.16
896835,513,34.16
896850,508,33.84
896865,509,33.84
896880,513,34.16
896895,512,33.84
896910,510,32.23
896925,509,32.23
896940,503,33.52
896955,511,33.52
896970,511,32.55
896985,505,33.52
897000,510,33.84
897015,509,33.52
897030,509,31.90
897045,509,32.55
897060,508,32.87
897075,509,33.84
897090,509,33.52
897105,503,32.23
897120,512,34.16
897135,504,32.55
897150,507,32.23
897165,507,31.90
897180,510,34.16
897195,509,33.84
897210,510,33.52
897225,511,31.90
897240,517,33.84
897255,514,33.84
897270,522,32.55
897285,522,33.84
897300,519,32.55
897315,522,33.52
897330,520,33.84
897345,516,34.16
897360,509,32.87
897375,510,32.87
897390,515,33.84
897405,510,33.19
897420,514,34.16
897435,509,33.19
897450,513,33.52
897465,509,33.84
897480,507,33.84
897495,502,32.23
897510,508,33.84
897525,506,33.52
897540,506,33.19
897555,514,33.52
897570,504,33.52
897585,509,33.84
897600,514,33.52
897615,512,31.90
897630,515,33.19
897645,515,33.52
897660,516,33.19
897675,516,33.52
897690,513,32.55
897705,519,33.52
897720,511,32.55
897735,517,33.84
897750,517,33.84
897765,512,33.84
897780,513,33.52
897795,512,32.23
897810,502,33.52
897825,510,34.16
897840,512,33.52
897855,515,34.16
897870,508,33.84
897885,511,33.19
897900,510,33.19
897915,512,33.52
897930,509,34.48
897945,507,31.90
897960,500,32.55
897975,506,33.84
897990,505,32.55
898005,506,33.52
898020,507,32.23
898035,515,33.84
898050,516,33.52
898065,520,33.52
898080,519,33.84
898095,513,32.87
898110,522,33.84
898125,521,33.52
898140,522,33.84
898155,521,33.84
898170,523,33.52
898185,523,33.52
898200,518,33.52
898215,513,31.90
898230,512,33.52
898245,510,32.23
898260,511,33.84
898275,506,32.23
898290,509,32.23
898305,505,31.90
898320,513,34.16
898335,505,33.84
898350,507,31.90
898365,515,33.52
898380,510,33.84
898395,513,32.87
898410,510,33.19
898425,510,32.55
898440,513,33.19
898455,513,33.84
898470,514,32.55
898485,510,34.16
898500,516,32.87
898515,512,32.55
898530,508,33.84
898545,508,33.52
898560,506,33.84
898575,509,33.84
898590,508,34.16
898605,509,33.84
898620,510,32.55
898635,512,34.16
898650,503,32.87
898665,510,33.19
898680,511,32.23
898695,514,32.55
898710,505,33.52
898725,504,33.84
898740,516,32.23
898755,512,33.52
898770,519,33.52
898785,517,33.52
898800,519,32.87
898815,515,32.55
898830,515,32.23
898845,509,33.19
898860,507,32.23
898875,513,33.84
898890,512,33.52
898905,513,33.52
898920,513,34.16
898935,513,33.84
898950,510,34.16
898965,503,32.55
898980,507,33.84
898995,499,32.55
899010,500,33.19
899025,497,33.52
899040,507,33.84
899055,508,33.52
899070,511,34.16
899085,508,33.84
899100,511,33.52
899115,513,32.55
899130,514,34.16
899145,507,34.48
899160,508,33.84
899175,506,32.23
899190,510,34.16
899205,502,33.84
899220,502,33.52
899235,509,33.84
899250,510,34.16
899265,507,33.52
899280,507,33.19
899295,501,33.52
899310,502,33.52
899325,495,33.52
899340,501,33.52
899355,504,34.16
899370,507,34.16
899385,502,33.84
899400,502,32.23
899415,508,33.84
899430,506,32.55
899445,507,33.52
899460,507,33.19
899475,501,34.16
899490,510,33.84
899505,516,33.52
899520,517,32.87
899535,514,32.23
899550,520,33.52
899565,513,32.23
899580,517,33.84
899595,511,31.90
899610,513,32.87
899625,505,33.19
899640,507,32.55
899655,515,33.84
899670,512,32.55
899685,505,33.19
899700,511,33.52
899715,513,34.16
899730,510,33.84
899745,511,33.84
899760,507,33.52
899775,509,34.16
899790,511,33.84
899805,504,33.19
899820,515,33.52
899835,507,33.52
899850,515,33.52
899865,509,32.23
899880,512,33.19
899895,506,33.84
899910,511,33.52
899925,507,33.84
899940,501,33.19
899955,512,33.19
899970,505,33.19
899985,509,33.84
900000,510,33.52
900015,510,33.84
900030,506,33.84
900045,507,33.52
900060,503,32.23
900075,504,32.23
900090,506,33.19
900106,507,32.23
900121,507,33.84
900136,504,33.52
900151,511,33.84
900166,509,33.52
900181,509,34.16
900196,509,33.84
900211,515,33.52
900226,514,32.87
900241,513,32.55
900256,517,33.84
900271,517,33.19
900286,519,33.52
900301,512,33.84
900317,512,33.19
900332,517,33.84
900347,506,33.19
900362,515,33.84
900378,515,33.84
900393,513,34.16
900408,513,33.84
900423,510,32.55
900438,508,33.19
900453,516,33.84
900468,510,32.23
900483,517,33.52
900499,515,33.84
900514,515,33.84
900530,515,32.55
900545,511,34.48
900560,513,33.52
900576,512,33.19
900591,513,32.55
900607,512,33.52
900623,511,33.52
900638,509,33.52
900654,516,33.52
900669,515,33.52
900685,514,33.52
900701,515,32.87
900716,511,33.52
900732,506,34.16
900748,512,33.52
900764,513,34.16
900780,513,34.16
900796,503,33.19
900811,508,32.55
900827,504,32.55
900843,506,32.23
900858,512,34.48
900874,510,33.84
900889,512,32.55
900905,510,33.52
900921,515,32.23
900936,524,32.55
900952,521,32.23
900967,515,33.52
900983,525,34.16
900999,517,33.52
901015,517,33.52
901030,523,33.52
901046,517,32.55
901062,511,33.19
901078,513,33.84
901094,513,33.52
901109,516,33.84
901125,513,32.55
901141,514,33.19
901157,513,33.52
901173,516,32.23
901189,516,32.23
901204,513,34.16
901219,510,32.55
901234,515,33.52
901250,515,33.84
901265,521,33.52
901280,515,33.84
901295,513,33.84
901311,516,33.52
901326,517,33.84
901342,513,33.84
901357,509,32.55
901372,512,33.52
901388,510,31.90
901403,514,34.16
901418,515,34.16
901433,510,32.55
901449,517,33.52
901464,514,33.84
901480,512,33.84
901496,514,34.16
901511,510,33.84
901527,511,33.84
901542,509,34.16
901558,512,32.55
901574,510,33.52
901589,510,33.84
901605,514,33.84
901620,518,33.84
901635,521,33.52
901650,521,33.52
901665,521,34.16
901680,516,33.52
901696,522,33.19
901711,520,31.90
901726,518,33.84
901741,515,33.52
901756,514,33.52
901771,515,33.84
901786,517,33.84
901801,510,34.16
901816,516,33.52
901831,513,33.84
901846,513,33.84
901861,513,33.84
901876,508,32.23
901891,508,32.23
901906,515,33.19
901921,510,32.87
901936,516,34.16
901951,516,33.52
901966,510,32.87
901981,513,32.55
901996,506,33.52
902011,512,33.84
902026,507,33.84
902041,513,31.90
902056,509,32.23
902071,510,32.23
902086,514,33.84
902101,509,32.55
902116,507,32.55
902131,513,32.87
902146,504,33.84
902161,511,33.84
902176,509,33.52
902191,501,32.55
902206,505,32.55
902221,507,34.16
902236,512,33.84
902251,509,32.55
902266,513,33.84
902281,510,33.84
902296,513,33.52
902311,514,34.16
902326,517,33.84
902341,509,32.23
902356,519,33.52
902371,522,33.84
902386,523,33.19
902401,523,33.84
902416,523,33.52
902431,515,31.58
902446,514,32.87
902461,507,34.16
902476,509,32.23
902491,513,32.87
902506,510,33.52
902521,514,33.84
902536,507,33.84
902551,510,31.90
902566,515,33.19
902581,515,33.52
902596,511,34.16
902611,511,33.52
902626,517,33.84
902641,514,33.19
902656,507,33.19
902671,514,33.19
902686,515,33.52
902701,515,33.19
902716,510,33.84
902731,515,33.19
902746,507,32.87
902761,513,32.87
902776,509,33.84
902791,505,32.23
902806,510,32.87
902821,508,33.52
902836,511,33.52
902851,514,34.16
902866,511,33.52
902881,512,33.84
902896,504,33.52
902911,509,33.84
902926,505,31.90
902941,509,32.55
902956,510,34.48
902971,506,31.58
902986,511,33.52
903001,515,33.84
903016,513,33.84
903031,514,33.52
903047,511,32.23
903062,516,32.87
903077,513,32.55
903092,513,32.87
903107,522,32.55
903123,523,33.84
903138,515,33.52
903153,515,34.16
903168,520,31.90
903184,520,33.84
903199,511,33.19
903214,513,31.90
903229,516,33.52
903244,508,32.55
903259,509,33.84
903274,504,33.19
903289,509,33.84
903305,512,34.16
903320,513,33.84
903335,515,33.19
903350,508,32.55
903365,516,34.16
903380,516,33.84
903396,510,32.23
903412,514,33.84
903428,515,33.52
903443,513,33.84
903459,505,33.19
903474,511,33.52
903490,512,32.23
903506,505,32.23
903521,502,33.52
903537,509,33.84
903552,506,34.16
903568,505,33.84
903584,506,32.23
903599,509,33.19
903615,506,33.52
903630,509,34.16
903646,511,33.52
903662,511,34.16
903678,512,33.52
903693,505,32.55
903709,508,33.52
903724,507,33.84
903740,508,33.84
903756,509,34.16
903772,507,34.16
903788,502,33.52
903803,504,33.19
903819,512,33.52
903835,512,32.23
903851,515,32.55
903867,510,33.52
903883,512,33.52
903898,514,34.16
903914,524,33.84
903929,521,32.87
903945,520,33.84
903961,522,34.16
903976,517,32.23
903992,509,34.16
904008,515,34.48
904023,506,34.48
904039,511,33.52
904054,510,33.52
904069,512,33.52
904084,509,33.84
904100,512,32.23
904115,511,33.84
904131,509,32.87
904147,513,33.84
904162,507,32.87
904178,514,34.16
904193,508,32.23
904208,508,33.52
904223,510,33.84
904239,513,32.55
904255,513,32.23
904270,506,32.23
904286,507,33.52
904301,511,34.16
904316,506,33.52
904331,504,32.23
904346,512,33.84
904361,503,33.52
904377,502,33.84
904392,505,33.52
904407,501,32.55
904422,506,32.23
904437,510,33.84
904452,512,33.84
904467,510,33.84
904482,514,33.19
904497,511,33.52
904512,511,33.19
904527,508,33.52
904542,505,32.23
904557,504,32.55
904572,509,33.84
904587,513,33.84
904602,503,32.55
904617,513,32.55
904632,515,34.16
904647,505,33.19
904662,516,33.52
904677,516,32.23
904692,512,33.52
904707,519,33.52
904722,522,34.16
904737,524,32.23
904752,524,33.84
904767,519,32.23
904782,515,33.52
904797,524,33.84
904812,516,33.52
904827,515,34.16
904842,514,33.52
904857,513,34.16
904872,512,34.16
904887,512,33.84
904902,513,33.19
904917,515,34.16
904932,516,33.84
904947,517,33.84
904962,515,33.52
904977,515,33.52
904992,506,33.52
905007,512,32.87
905022,509,33.84
905037,518,34.16
905052,516,33.52
905067,511,32.55
905082,517,33.52
905097,518,33.84
905112,514,33.84
905127,511,33.84
905142,510,34.16
905157,510,33.52
905172,511,33.52
905187,511,33.19
905202,510,33.52
905217,505,33.19
905232,515,32.55
905247,513,33.19
905262,512,33.19
905277,510,32.87
905292,509,33.52
905307,509,33.19
905322,512,34.16
905337,506,31.90
905352,512,33.84
905367,511,31.90
905382,514,33.84
905397,514,34.16
905412,513,33.84
905427,514,33.84
905442,518,33.52
905457,510,33.19
905472,518,33.52
905487,520,33.84
905502,517,32.23
905517,521,34.16
905532,524,33.52
905547,522,33.84
905562,518,32.87
905577,509,33.19
905592,509,32.23
905607,505,33.52
905622,510,33.84
905637,507,32.55
905652,513,33.84
905667,513,34.16
905682,509,32.23
905697,506,32.23
905712,512,33.84
905727,509,33.84
905742,513,33.19
905757,503,33.52
905772,514,33.19
905787,509,33.84
905802,514,33.52
905817,514,31.90
905832,512,32.23
905847,517,33.84
905862,512,33.84
905877,510,32.23
905892,508,33.84
905908,509,33.52
905923,509,32.55
905939,500,33.19
905954,508,33.52
905969,509,33.84
905985,508,33.52
906000,512,33.84
906016,510,33.52
906031,512,33.84
906046,507,32.55
906061,511,33.84
906077,506,32.23
906093,509,32.87
906108,509,33.84
906124,506,33.84
906139,511,33.84
906154,507,33.52
906169,516,33.84
906185,519,33.52
906201,521,31.90
906217,522,33.19
906232,514,33.52
906247,514,32.55
906263,518,33.52
906279,517,32.23
906294,510,33.84
906310,512,32.23
906325,509,33.52
906341,512,33.84
906357,510,33.19
906372,509,33.84
906388,510,33.52
906403,505,32.87
906419,503,33.52
906435,513,32.55
906450,517,33.19
906466,514,33.84
906482,506,32.55
906497,515,33.84
906512,515,33.84
906527,512,33.19
906543,508,33.52
906559,511,33.84
906575,511,33.52
906591,503,31.90
906607,507,33.52
906622,506,32.55
906637,509,33.84
906652,506,33.84
906667,509,33.19
906683,512,33.19
906699,503,33.84
906715,513,33.19
906730,516,33.84
906745,505,33.52
906760,503,33.84
906775,504,32.55
906790,508,33.84
906806,503,33.84
906821,502,32.23
906836,505,32.87
906851,513,34.16
906866,506,32.87
906881,516,33.52
906897,519,33.19
906912,519,32.87
906927,521,33.52
906942,522,33.19
906958,518,32.87
906973,517,33.84
906989,516,33.52
907004,518,33.84
907019,515,33.84
907034,515,32.55
907049,516,33.84
907064,506,32.23
907079,518,31.90
907094,510,33.84
907109,511,33.84
907124,510,33.84
907139,510,33.84
907154,513,32.87
907170,512,32.87
907185,512,34.16
907200,507,33.19
907215,514,33.52
907230,511,33.84
907245,515,34.16
907260,516,32.55
907275,511,33.84
907290,504,33.52
907305,508,32.23
907321,511,34.16
907336,502,33.52
907351,504,33.19
907366,513,33.52
907381,510,33.52
907396,508,33.84
907411,511,33.84
907426,512,33.19
907441,511,33.84
907456,504,33.52
907471,509,32.23
907486,510,34.16
907501,505,32.55
907516,504,33.19
907531,506,32.23
907546,505,32.55
907561,510,33.84
907576,509,33.84
907591,507,32.23
907606,509,33.52
907621,513,33.84
907636,512,33.84
907651,515,31.90
907666,521,33.84
907681,517,32.87
907696,521,34.16
907711,521,34.48
907726,512,32.23
907741,515,32.55
907756,511,33.52
907771,516,33.84
907786,516,33.84
907801,514,32.87
907816,509,32.55
907831,512,33.84
907846,505,33.19
907861,506,32.87
907876,509,34.16
907891,506,32.55
907906,508,33.52
907921,509,34.48
907936,507,32.55
907951,514,33.52
907966,508,33.52
907981,518,33.52
907996,517,33.84
908011,507,33.52
908026,513,33.19
908041,508,32.55
908056,512,34.16
908071,505,32.55
908086,509,33.84
908101,511,33.52
908116,512,33.84
908131,507,32.23
908146,512,33.84
908161,510,33.52
908176,503,32.87
908191,509,33.52
908206,509,33.52
908221,506,31.90
908236,500,32.55
908251,509,33.52
908266,509,33.84
908281,512,33.52
908296,512,33.84
908311,509,34.48
908326,511,33.84
908341,502,32.23
908356,504,32.55
908371,511,33.19
908386,511,33.52
908401,517,33.19
908416,517,34.16
908431,521,33.84
908446,522,33.52
908461,522,33.52
908476,521,33.84
908491,519,33.19
908506,515,31.90
908521,510,32.23
908536,513,34.16
908551,516,33.84
908567,514,33.52
908582,512,32.23
908597,514,32.23
908612,512,32.23
908627,512,33.52
908642,505,33.84
908658,513,33.52
908673,515,33.84
908688,513,33.52
908703,514,32.55
908718,514,33.52
908733,513,34.16
908748,516,33.84
908763,519,33.84
908779,518,33.84
908794,515,34.16
908809,511,33.84
908824,504,33.52
908839,509,33.52
908854,510,33.84
908869,511,34.16
908884,515,33.84
908899,511,33.84
908914,514,33.84
908930,507,32.55
908946,514,33.84
908961,507,31.90
908977,510,32.23
908992,507,33.84
909008,507,32.23
909024,509,33.52
909040,510,33.84
909056,501,32.55
909072,508,33.84
909087,509,33.84
909103,510,33.52
909119,512,34.16
909134,505,32.87
909150,518,33.52
909166,518,33.19
909181,515,31.90
909197,517,34.16
909213,516,33.84
909228,521,34.48
909243,511,32.23
909258,514,33.84
909274,507,33.19
909290,512,33.84
909306,511,33.52
909321,510,33.52
909336,505,33.19
909351,508,32.55
909367,510,32.55
909383,511,33.84
909398,514,32.87
909414,509,32.55
909429,511,33.84
909445,509,32.23
909460,508,32.23
909476,507,31.90
909492,507,32.23
909507,513,33.52
909523,510,34.16
909539,509,33.52
909554,510,34.16
909569,510,33.84
909584,509,33.84
909600,512,33.84
909615,507,33.52
909631,509,32.55
909647,514,34.16
909662,513,33.84
909678,511,33.52
909694,510,33.84
909709,508,33.52
909725,502,33.19
909740,508,33.84
909756,507,33.84
909771,501,32.87
909786,509,34.16
909801,510,33.52
909816,510,33.84
909831,512,33.19
909846,516,33.84
909861,509,32.23
909877,516,34.16
909892,516,33.84
909907,519,33.84
909922,513,32.55
909937,520,34.16
909952,513,32.55
909967,521,33.52
909982,522,34.16
909997,518,34.16
910012,511,32.23
910027,509,33.52
910042,512,33.52
910057,514,33.84
910072,513,33.84
910087,513,33.84
910102,514,33.84
910117,514,33.84
910132,516,34.16
910147,512,33.19
910162,516,33.52
910177,513,31.90
910192,515,32.55
910207,515,33.52
910222,513,33.19
910237,516,34.16
910252,514,34.16
910267,507,32.23
910282,507,33.84
910297,513,33.52
910312,515,34.48
910327,512,33.52
910342,510,33.52
910357,507,34.16
910372,507,32.55
910387,509,33.52
910402,510,33.84
910417,515,32.87
910432,513,33.52
910447,507,32.87
910462,509,33.52
910477,513,34.16
910492,507,33.84
910507,512,33.52
910522,502,33.52
910537,506,32.55
910552,513,34.16
910567,504,33.52
910582,512,33.84
910597,514,34.16
910612,516,34.16
910627,511,33.84
910642,515,34.16
910657,516,33.84
910672,518,33.19
910687,519,33.84
910702,515,31.90
910717,513,32.55
910732,519,33.84
910747,522,33.84
910762,517,33.52
910777,516,32.55
910792,514,33.52
910807,514,33.52
910822,511,34.16
910837,506,32.23
910852,509,32.55
910867,512,31.90
910882,514,33.19
910897,512,32.23
910912,515,33.84
910927,512,34.16
910942,510,32.23
910957,512,34.16
910972,511,33.52
910987,509,34.16
911002,514,34.16
911017,506,32.23
911032,507,33.84
911047,516,34.16
911062,509,32.23
911077,514,33.84
911092,515,33.84
911107,511,33.84
911122,508,34.16
911137,508,33.84
911152,511,33.84
911167,503,32.87
911182,512,34.48
911197,511,31.90
911212,512,32.87
911227,510,32.23
911242,504,33.52
911257,511,33.84
911272,512,33.84
911287,503,32.55
911302,510,33.84
911317,511,34.16
911332,507,31.58
911347,506,33.19
911362,507,33.19
911377,515,32.87
911392,513,33.84
911407,514,33.84
911422,514,33.84
911437,518,32.55
911452,514,34.16
911467,513,32.55
911482,513,33.84
911497,524,34.16
911512,515,32.87
911527,516,33.52
911542,510,33.84
911557,515,33.84
911572,515,32.55
911587,513,34.16
911602,512,33.84
911617,512,34.16
911632,515,34.16
911647,514,32.87
911662,512,31.90
911677,514,33.84
911692,512,34.16
911707,514,33.84
911722,510,33.84
911737,503,32.23
911752,512,34.16
911767,516,33.84
911782,515,33.52
911797,515,32.23
911812,517,33.19
911827,515,34.16
911842,514,33.84
911857,512,33.52
911872,509,33.52
911887,511,33.84
911902,507,32.55
911917,511,33.52
911932,510,34.16
911947,513,33.84
911962,508,31.90
911977,512,33.52
911992,505,32.55
912007,512,33.84
912022,503,34.16
912037,510,33.19
912052,507,34.16
912067,512,33.19
912082,508,33.52
912097,511,33.52
912112,511,34.16
912127,511,34.16
912142,513,33.52
912157,507,33.19
912172,509,33.52
912187,515,33.19
912202,518,33.84
912217,517,34.16
912232,520,33.52
912247,514,32.23
912262,517,34.16
912277,518,33.19
912292,507,32.87
912307,513,33.84
912322,509,33.84
912337,505,32.23
912352,507,32.55
912367,509,33.84
912382,501,33.84
912397,508,32.55
912412,513,33.52
912427,506,32.23
912442,511,33.52
912457,509,33.84
912472,509,33.84
912487,503,33.52
912502,509,32.23
912517,508,33.52
912532,512,33.84
912547,511,33.84
912562,510,32.55
912577,511,33.84
912592,505,32.23
912607,510,32.87
912622,509,32.55
912637,509,34.16
912652,503,34.16
912667,509,33.52
912682,508,33.52
912697,511,32.55
912712,510,33.52
912727,505,32.55
912742,503,33.52
912757,499,32.23
912772,505,33.84
912787,498,32.87
912802,502,32.23
912817,510,32.55
912832,509,33.84
912847,513,33.19
912862,510,34.16
912877,515,33.84
912892,507,32.55
912907,512,33.19
912922,507,32.87
912937,516,33.52
912952,509,33.52
912967,517,32.87
912982,518,33.52
912997,520,34.48
913012,515,31.90
913027,508,32.55
913042,516,33.84
913057,514,34.16
913072,515,33.84
913087,505,32.23
913102,512,33.84
913117,510,33.84
913132,512,33.84
913147,511,33.84
913162,513,33.19
913177,514,34.16
913192,507,32.55
913207,511,33.52
913222,508,31.90
913237,508,33.84
913252,503,32.55
913267,512,33.84
913282,511,33.84
913297,508,32.87
913312,513,34.16
913327,513,33.84
913342,508,31.90
913357,509,33.84
913372,507,32.55
913387,507,33.84
913402,509,33.84
913417,507,33.52
913432,503,32.23
913447,510,33.52
913462,510,33.84
913477,509,33.52
913492,505,31.90
913507,508,32.55
913522,503,32.23
913537,507,33.84
913552,504,32.23
913567,508,33.19
913582,508,33.84
913597,509,33.84
913612,511,34.16
913627,511,33.84
913642,512,32.87
913657,507,33.84
913672,510,33.52
913687,511,32.55
913702,513,33.52
913717,517,34.16
913732,515,33.52
913747,511,32.55
913762,513,32.23
913777,522,33.84
913792,521,33.19
913807,513,34.16
913822,512,32.55
913837,512,33.52
913852,511,33.84
913867,511,32.87
913882,511,33.52
913897,506,32.87
913912,513,33.84
913927,512,33.84
913942,506,32.55
913957,511,33.52
913972,511,33.84
913987,509,32.87
914002,511,34.48
914017,511,34.16
914032,506,32.23
914047,516,34.16
914062,515,33.52
914077,515,33.19
914092,516,33.84
914107,512,34.16
914122,503,33.52
914137,510,33.52
914152,507,34.16
914167,509,33.84
914182,504,32.87
914197,510,32.55
914212,509,34.48
914227,512,33.84
914242,511,33.84
914257,503,32.23
914272,509,33.84
914287,508,33.84
914302,509,33.52
914317,509,34.16
914332,505,32.55
914347,511,33.19
914362,504,33.52
914377,512,33.19
914392,506,33.19
914407,503,32.55
914422,509,34.16
914437,503,33.52
914452,511,33.84
914467,509,32.23
914482,520,33.84
914497,518,33.52
914512,522,33.84
914527,521,32.87
914542,519,33.84
914557,511,33.84
914572,515,34.16
914587,516,32.87
914602,510,33.84
914617,503,33.19
914632,513,33.84
914647,512,33.84
914662,514,33.19
914677,516,33.84
914692,512,33.84
914707,511,33.84
914722,505,33.84
914737,512,34.16
914752,510,33.84
914767,504,33.19
914782,512,33.84
914797,513,33.52
914812,514,34.16
914827,514,33.84
914842,508,33.52
914857,512,34.16
914872,510,33.84
914887,509,32.55
914902,510,32.55
914917,509,32.55
914932,512,33.52
914947,510,33.84
914962,512,33.84
914977,513,34.16
914992,503,32.55
915007,507,33.52
915022,510,33.84
915037,502,32.23
915052,507,33.52
915067,508,33.84
915082,510,33.19
915097,505,33.52
915112,513,32.23
915127,512,32.87
915142,516,32.23
915157,515,33.84
915172,508,32.87
915187,516,33.52
915202,510,34.16
915217,515,32.55
915232,515,34.16
915247,517,34.16
915262,517,32.23
915277,514,33.84
915292,513,33.84
915307,511,32.55
915322,513,34.16
915337,510,33.84
915352,511,33.84
915367,505,32.23
915382,511,32.55
915397,505,32.23
915412,512,33.52
915427,513,33.84
915442,511,33.84
915457,509,32.23
915472,511,33.84
915487,504,33.84
915502,506,33.84
915517,503,33.84
915532,503,33.84
915547,511,32.87
915562,512,33.84
915577,514,34.16
915592,514,33.84
915607,503,33.84
915622,502,34.16
915637,507,32.55
915652,507,34.48
915667,506,33.52
915682,507,34.16
915697,510,34.48
915712,507,33.84
915727,511,34.16
915742,507,33.52
915757,513,33.52
915772,508,34.16
915787,511,33.84
915802,499,33.52
915817,503,33.19
915832,508,33.84
915847,510,32.55
915862,506,31.90
915877,515,31.90
915892,515,33.52
915907,513,32.55
915922,516,32.55
915937,514,34.16
915952,518,32.55
915967,515,32.55
915982,518,32.55
915997,518,32.87
916012,516,32.55
916027,516,33.84
916042,517,34.16
916057,507,34.16
916072,507,34.16
916087,509,33.84
916102,511,33.19
916117,511,34.16
916132,503,33.52
916147,514,32.55
916162,511,33.19
916177,514,32.55
916192,512,33.84
916207,510,33.84
916222,513,33.19
916237,502,33.52
916252,501,33.52
916267,503,33.84
916282,505,33.84
916297,511,33.52
916312,509,32.55
916327,512,32.87
916342,512,33.52
916357,502,32.87
916372,507,33.19
916387,507,33.52
916402,507,33.52
916417,499,33.52
916432,507,33.52
916447,509,33.52
916462,511,33.84
916477,508,32.23
916492,510,33.84
916507,510,33.19
916522,510,33.52
916537,508,33.84
916552,505,34.16
916567,507,33.19
916582,510,33.84
916597,511,32.87
916612,509,34.16
916627,510,33.19
916642,504,32.87
916657,509,33.84
916672,513,33.84
916687,512,33.84
916702,506,32.87
916717,515,33.52
916732,517,33.52
916747,519,33.52
916762,518,33.84
916777,510,33.84
916792,513,33.52
916807,514,34.16
916822,510,32.23
916837,510,33.84
916852,511,33.84
916867,510,32.87
916882,510,33.84
916897,512,33.52
916912,507,32.23
916927,513,33.19
916942,514,33.84
916957,513,33.52
916972,511,33.19
916987,509,33.84
917002,512,33.84
917017,505,33.19
917032,511,34.16
917047,507,33.52
917062,515,33.84
917077,514,34.16
917092,514,33.84
917107,511,34.16
917122,506,32.23
917137,503,32.55
917152,507,31.90
917167,504,32.23
917182,511,34.48
917197,503,33.19
917212,504,33.84
917227,511,33.84
917242,510,33.84
917257,512,33.52
917272,504,33.52
917287,509,34.16
917302,501,33.52
917317,509,33.84
917332,515,33.84
917347,510,31.90
917362,514,34.16
917377,516,33.52
917392,513,33.84
917407,509,31.90
917422,511,33.84
917437,512,34.16
917452,506,33.52
917467,513,33.84
917482,515,33.84
917497,519,34.16
917512,522,34.16
917527,526,33.52
917542,525,33.84
917557,517,32.87
917572,515,33.19
917587,515,33.52
917602,513,33.84
917617,515,33.84
917632,514,33.84
917647,517,33.52
917662,518,32.87
917677,518,33.52
917692,517,33.84
917707,513,33.84
917722,514,33.84
917737,515,33.84
917752,514,33.52
917767,515,33.84
917782,513,33.52
917797,514,33.52
917812,514,33.84
917827,519,33.84
917842,518,34.16
917857,515,33.19
917872,516,33.84
917887,507,33.19
917902,511,33.52
917917,510,33.52
917932,511,33.52
917947,508,33.52
917962,507,33.52
917977,513,34.16
917992,513,33.52
918007,512,33.19
918022,512,33.52
918037,510,33.52
918052,514,33.52
918067,507,32.23
918082,508,33.84
918097,509,32.55
918112,512,33.84
918127,505,32.87
918142,512,33.84
918157,511,33.84
918172,506,33.19
918187,504,33.84
918202,511,33.84
918217,514,33.84
918232,513,32.23
918247,521,33.19
918262,515,33.19
918277,520,32.23
918292,521,33.84
918307,517,32.87
918322,515,32.55
918337,510,32.55
918352,516,33.52
918367,506,33.19
918382,511,33.84
918397,512,34.16
918412,511,32.23
918427,512,33.84
918442,515,33.52
918457,511,32.55
918472,513,33.52
918487,509,32.55
918502,509,31.90
918517,514,33.52
918532,512,34.16
918547,515,34.16
918562,515,33.52
918577,514,33.84
918592,509,32.87
918607,512,33.84
918622,513,33.19
918637,507,32.55
918652,509,33.52
918667,510,33.84
918682,510,34.16
918697,513,33.52
918712,504,33.52
918727,514,33.84
918742,506,33.52
918757,512,33.52
918772,506,32.23
918787,507,33.84
918802,508,31.90
918817,507,34.16
918832,501,33.52
918847,511,34.16
918862,507,32.23
918877,513,34.16
918892,507,31.90
918907,513,33.84
918922,514,33.52
918937,513,33.52
918952,512,33.84
918967,519,33.84
918982,519,33.84
918997,519,33.52
919012,522,33.52
919027,522,34.16
919042,523,33.84
919057,522,34.16
919072,519,32.55
919087,516,33.84
919102,513,33.52
919117,510,33.52
919132,510,33.52
919147,503,32.55
919162,516,33.52
919177,515,33.84
919192,514,33.84
919207,513,32.55
919222,513,33.52
919237,510,32.23
919252,510,32.55
919267,511,33.52
919282,512,33.52
919297,515,33.84
919312,515,33.19
919327,515,34.16
919342,516,32.55
919357,514,33.52
919372,510,32.23
919387,511,33.52
919402,509,34.16
919417,507,34.16
919432,510,34.48
919447,510,33.84
919462,509,33.52
919477,505,32.87
919492,507,32.23
919507,511,33.84
919522,512,33.19
919537,503,32.23
919552,507,33.84
919567,510,33.52
919582,510,34.16
919597,508,33.19
919612,512,33.84
919627,511,34.16
919642,512,33.84
919657,513,33.19
919672,508,32.87
919687,506,32.55
919702,514,33.52
919717,515,33.52
919732,515,32.55
919747,520,33.84
919762,517,33.84
919777,522,34.16
919792,522,33.19
919807,522,33.84
919822,519,33.52
919837,514,31.90
919852,509,31.90
919867,513,34.16
919882,513,34.16
919897,514,34.16
919912,511,32.55
919927,506,32.87
919942,514,34.16
919957,515,33.84
919972,509,33.19
919987,515,33.19
920002,507,34.16
920017,512,32.87
920032,505,32.55
920047,509,32.55
920062,507,33.19
920077,516,34.16
920092,516,32.55
920107,514,33.84
920122,512,34.16
920137,505,33.52
920153,503,32.55
920168,508,33.84
920183,507,33.84
920198,504,31.58
920213,510,33.84
920228,502,33.19
920244,505,32.23
920259,512,33.84
920275,509,33.84
920291,511,33.84
920306,512,32.55
920321,512,33.19
920336,506,32.55
920351,510,33.84
920366,507,33.84
920382,510,33.52
920397,512,34.16
920412,506,32.23
920427,511,33.84
920442,506,33.19
920457,508,33.52
920472,518,34.16
920487,510,32.55
920503,518,33.52
920518,521,33.84
920533,514,33.19
920548,521,33.52
920563,518,32.23
920578,518,34.16
920594,517,33.52
920610,515,34.16
920625,516,32.87
920641,516,33.52
920656,511,32.55
920671,512,32.55
920687,511,32.87
920703,513,34.16
920719,514,33.52
920734,505,33.52
920750,511,33.84
920766,504,33.19
920781,511,33.52
920797,513,32.55
920812,514,34.16
920828,509,32.55
920844,511,34.16
920859,516,32.87
920875,514,33.84
920891,513,33.84
920907,515,33.84
920922,511,33.52
920937,511,33.19
920953,513,33.52
920969,510,33.84
920984,505,32.23
921000,501,33.52
921015,509,33.52
921031,509,33.52
921047,509,34.16
921062,509,33.84
921078,505,33.84
921093,511,33.52
921109,508,32.55
921125,512,32.87
921140,511,33.52
921156,507,32.23
921171,504,33.52
921187,509,33.84
921203,502,33.84
921218,510,33.84
921234,509,33.52
921249,512,33.84
921265,511,33.84
921281,516,34.16
921296,518,33.52
921312,518,33.84
921327,516,32.23
921342,520,32.23
921357,513,33.84
921372,514,32.23
921387,508,33.52
921402,507,31.90
921417,511,34.16
921433,510,34.16
921448,504,32.23
921463,507,33.84
921478,507,33.84
921493,510,33.84
921508,510,33.84
921523,509,33.19
921538,513,33.52
921553,503,32.55
921568,509,33.84
921583,507,33.84
921598,511,33.84
921613,513,33.19
921628,516,32.55
921643,517,34.16
921658,521,33.52
921673,518,33.52
921688,520,33.52
921703,518,33.84
921718,524,33.84
921733,518,33.84
921748,519,34.16
921763,520,33.84
921778,516,34.16
921793,516,33.52
921808,516,33.84
921823,514,34.16
921838,509,31.58
921853,512,32.55
921868,503,33.19
921883,509,33.52
921898,502,32.55
921913,508,32.55
921928,511,34.16
921943,504,33.52
921958,510,33.19
921973,510,33.19
921988,512,33.52
922003,504,32.23
922018,505,32.23
922033,514,32.87
922048,516,34.16
922063,520,33.84
922078,523,33.84
922093,524,33.52
922108,526,33.52
922123,523,33.19
922138,525,33.19
922153,522,34.16
922168,522,34.16
922183,516,33.52
922198,516,33.52
922213,510,32.87
922228,507,32.23
922243,516,33.84
922258,512,33.19
922273,515,33.84
922288,508,31.90
922303,511,33.84
922318,512,34.16
922333,509,32.23
922348,510,33.52
922363,504,32.55
922378,512,33.84
922393,514,33.84
922408,516,32.55
922423,507,33.52
922438,513,33.84
922453,509,32.55
922468,507,33.52
922483,507,33.84
922498,501,32.87
922513,506,33.52
922528,507,33.84
922543,508,32.55
922558,509,33.84
922573,505,33.52
922588,500,33.19
922603,508,33.84
922618,508,34.16
922633,501,32.87
922648,507,33.19
922663,505,33.19
922679,506,34.16
922694,507,33.52
922709,509,34.16
922724,509,33.52
922739,504,32.87
922754,499,33.52
922770,508,34.16
922785,501,32.87
922800,508,33.19
922815,509,34.16
922830,511,34.16
922845,506,33.84
922861,517,33.84
922876,517,32.55
922891,517,33.52
922906,510,32.87
922921,519,33.19
922936,511,34.16
922951,513,32.87
922966,512,33.84
922981,505,32.23
922996,512,34.16
923012,513,34.16
923028,505,33.84
923043,512,33.19
923059,517,33.19
923074,514,33.84
923090,515,32.55
923106,512,33.84
923121,514,33.19
923137,513,33.19
923153,514,33.19
923168,502,32.23
923184,511,34.16
923199,508,34.16
923215,500,33.84
923231,505,32.23
923246,509,34.16
923262,508,33.52
923277,510,33.52
923293,509,33.84
923309,507,33.84
923324,508,33.52
923340,509,32.55
923355,511,34.16
923371,510,33.84
923387,512,33.84
923403,515,32.55
923419,515,33.84
923434,513,33.84
923449,517,33.84
923465,516,33.52
923481,517,34.16
923497,512,32.55
923513,516,33.84
923528,520,33.52
923543,518,33.52
923558,520,33.84
923574,513,34.16
923590,517,33.19
923605,510,32.23
923621,513,33.19
923636,510,32.55
923652,509,33.84
923667,507,34.16
923683,503,32.23
923699,508,33.52
923714,502,32.87
923730,509,32.55
923746,507,34.16
923761,509,32.55
923777,512,33.84
923792,510,32.23
923808,514,33.52
923824,508,32.23
923839,511,33.84
923855,512,33.84
923870,504,33.52
923885,510,33.84
923900,502,33.19
923915,509,33.52
923930,502,33.84
923945,501,32.55
923960,510,34.16
923976,504,31.90
923991,510,32.87
924006,509,32.23
924021,505,32.87
924036,510,33.52
924051,510,33.84
924066,509,33.84
924081,501,32.23
924096,508,33.84
924111,508,32.87
924127,507,32.23
924142,513,33.84
924157,518,33.19
924172,520,35.45
924187,514,32.55
924202,518,31.90
924217,515,34.16
924232,515,33.84
924247,507,32.55
924262,513,33.19
924277,507,33.84
924292,510,32.23
924307,517,33.84
924322,510,32.55
924337,516,33.19
924352,510,33.84
924367,507,33.19
924382,514,34.16
924397,511,33.52
924412,510,33.52
924427,507,33.52
924442,512,32.87
924457,511,33.84
924472,515,33.52
924487,517,34.16
924502,516,33.84
924517,512,33.84
924532,510,33.84
924547,510,33.84
924562,509,33.84
924577,510,33.84
924592,508,33.84
924607,508,34.16
924622,506,32.23
924637,510,34.16
924652,507,32.55
924667,501,32.23
924682,504,33.52
924697,508,33.52
924712,500,33.52
924727,507,33.84
924742,510,33.52
924757,511,32.87
924772,511,32.23
924787,506,33.52
924802,509,31.90
924817,512,33.52
924832,512,32.87
924847,518,32.23
924862,519,33.84
924877,521,33.52
924892,522,33.52
924907,523,34.16
924922,525,33.52
924937,522,33.84
924952,520,34.16
924967,510,32.55
924982,512,33.84
924997,509,32.55
925012,506,34.16
925027,507,33.19
925042,514,33.52
925057,516,34.16
925072,514,32.87
925087,513,33.52
925102,506,33.19
925117,512,34.16
925132,509,34.16
925147,511,34.16
925162,513,32.23
925177,514,33.84
925192,513,33.84
925207,511,33.52
925222,516,33.19
925237,511,33.52
925252,513,32.87
925267,509,33.52
925282,503,33.84
925297,508,33.84
925312,509,34.16
925327,503,33.52
925343,508,33.84
925358,505,33.52
925373,512,33.52
925388,513,32.55
925403,514,33.52
925418,512,33.84
925434,514,34.16
925449,505,31.58
925464,511,33.84
925479,505,32.23
925494,505,33.19
925509,513,34.16
925525,507,32.23
925541,506,33.19
925556,516,33.84
925572,519,32.55
925587,517,34.48
925603,514,32.87
925619,516,33.19
925634,519,32.23
925650,520,33.52
925666,519,31.90
925681,510,32.87
925697,520,34.16
925712,508,33.52
925728,512,34.16
925744,514,33.84
925759,508,33.84
925775,507,33.19
925791,514,33.84
925806,514,33.52
925822,512,32.55
925838,516,34.16
925854,518,33.84
925870,516,34.16
925885,512,33.84
925901,512,32.55
925917,514,33.52
925932,513,33.52
925948,516,32.55
925963,506,33.52
925979,511,33.84
925995,511,33.52
926011,511,33.52
926027,511,34.16
926043,514,33.84
926059,512,32.87
926075,504,33.19
926091,513,34.16
926106,514,34.16
926122,510,31.90
926138,511,34.16
926154,506,33.52
926170,506,34.16
926186,507,32.87
926202,505,32.23
926217,513,32.55
926233,509,31.58
926249,509,33.84
926265,511,34.16
926281,515,33.52
926296,516,33.84
926312,517,33.52
926328,516,32.55
926344,512,33.19
926359,519,33.52
926375,519,33.84
926390,513,33.52
926406,517,34.16
926422,516,33.84
926437,517,33.19
926452,516,33.52
926467,516,33.84
926483,516,33.84
926498,513,33.84
926513,510,33.84
926528,506,32.55
926544,513,33.84
926559,505,32.23
926575,508,34.16
926591,511,32.55
926606,512,32.55
926622,513,33.84
926637,512,33.84
926652,508,32.55
926667,508,31.90
926683,510,34.16
926699,510,33.84
926714,508,34.16
926729,510,33.19
926744,509,33.52
926760,506,33.84
926775,506,33.84
926790,512,33.84
926805,506,33.84
926820,510,33.84
926835,503,33.19
926851,510,32.55
926866,508,33.52
926881,510,34.16
926896,506,33.52
926911,509,34.16
926926,509,33.52
926941,506,33.84
926956,508,31.90
926971,510,31.90
926986,516,33.84
927002,520,33.84
927017,517,32.55
927032,510,34.16
927047,512,32.55
927062,516,33.84
927077,518,33.19
927092,517,33.52
927107,508,32.23
927122,510,33.84
927137,514,33.52
927152,513,33.19
927167,507,31.90
927182,506,32.23
927197,509,34.16
927212,511,33.84
927227,510,33.84
927242,511,32.87
927257,504,33.52
927272,514,33.52
927287,514,33.84
927302,512,33.84
927317,513,33.52
927332,512,32.87
927347,504,32.23
927362,509,32.87
927377,511,33.84
927392,503,33.19
927407,508,31.90
927422,508,33.84
927437,509,33.52
927452,505,32.55
927467,509,33.84
927482,501,33.52
927497,503,32.87
927512,505,34.16
927527,508,34.16
927542,501,32.55
927557,510,34.16
927572,508,32.23
927587,512,33.52
927602,505,32.23
927617,509,33.84
927632,508,33.84
927647,509,33.84
927662,508,33.52
927677,508,34.16
927692,509,33.84
927707,507,32.23
927722,507,33.84
927737,513,33.84
927752,508,33.52
927767,514,31.90
927782,516,33.84
927797,515,34.16
927812,516,33.84
927827,517,34.48
927842,513,33.84
927857,514,32.23
927872,508,33.84
927887,511,32.23
927902,512,32.87
927917,512,33.84
927932,509,33.52
927947,504,32.55
927962,508,33.84
927977,506,32.87
927992,512,33.84
928007,514,33.84
928022,507,33.19
928037,515,33.52
928052,508,33.19
928067,510,32.23
928082,514,32.87
928097,505,34.16
928112,506,32.55
928127,503,33.84
928142,510,33.52
928157,513,32.23
928172,512,33.84
928187,513,33.52
928202,510,33.84
928217,506,32.55
928232,503,32.87
928247,508,33.52
928262,509,33.84
928277,507,32.23
928292,508,33.52
928307,504,32.55
928322,511,33.84
928337,510,33.84
928352,510,33.84
928367,508,32.23
928382,512,33.19
928397,507,33.52
928412,508,33.84
928427,508,34.16
928442,508,33.84
928457,510,33.19
928472,511,33.84
928487,503,33.19
928502,510,33.84
928517,509,33.19
928532,513,33.84
928547,508,32.87
928562,515,33.52
928577,519,33.19
928592,520,33.52
928607,522,33.84
928622,524,33.84
928637,519,33.52
928652,516,33.84
928667,515,32.23
928682,516,33.84
928697,508,32.55
928712,513,33.52
928727,507,33.84
928742,514,34.16
928757,507,32.55
928772,514,33.84
928787,514,33.84
928802,517,34.16
928817,515,33.52
928832,513,33.52
928847,512,33.52
928862,512,33.52
928877,510,32.23
928892,508,32.23
928907,516,33.19
928922,518,33.84
928937,515,32.87
928952,516,34.16
928967,513,33.52
928982,507,32.87
928997,506,34.16
929012,508,34.16
929027,506,32.23
929042,510,34.16
929057,513,34.16
929072,513,33.19
929087,508,32.55
929102,515,33.84
929117,507,32.23
929132,511,33.52
929147,508,32.55
929162,508,34.16
929177,508,34.16
929192,506,33.84
929207,514,33.52
929222,514,33.19
929237,510,33.84
929252,512,33.52
929267,511,33.52
929282,511,33.19
929297,512,33.84
929312,507,33.84
929327,512,33.52
929342,516,33.52
929357,516,32.23
929372,519,31.90
929387,520,33.84
929402,520,34.16
929417,521,33.52
929432,517,34.16
929447,509,32.55
929462,514,33.84
929477,505,33.84
929492,504,32.87
929507,507,34.16
929522,512,33.52
929537,515,33.52
929552,514,33.52
929567,514,33.84
929582,510,33.84
929597,510,33.84
929612,505,33.84
929627,514,32.87
929642,514,33.84
929657,516,33.19
929672,516,33.84
929687,513,32.55
929702,510,31.90
929717,511,34.16
929732,504,33.84
929747,508,34.16
929762,507,33.84
929777,503,33.52
929792,510,33.52
929807,507,32.55
929822,509,33.84
929837,510,33.84
929852,511,33.84
929867,508,34.16
929882,502,33.84
929897,504,33.84
929912,501,33.84
929927,505,33.52
929942,508,33.84
929957,510,33.84
929972,509,33.84
929987,506,32.55
930002,513,34.16
930017,511,33.84
930032,503,33.19
930047,511,33.84
930062,508,32.55
930077,509,33.84
930092,513,33.84
930107,512,32.55
930122,520,32.87
930137,517,34.16
930152,512,33.84
930167,518,33.84
930182,513,33.84
930197,512,33.84
930212,511,33.84
930227,510,33.19
930242,503,32.55
930257,509,32.23
930272,509,32.55
930287,515,33.52
930302,512,33.52
930317,512,33.84
930332,503,32.23
930347,510,33.84
930362,502,33.19
930377,512,34.16
930392,514,32.55
930407,512,33.84
930422,513,33.52
930437,512,32.23
930452,511,32.23
930467,514,33.84
930482,512,34.16
930497,509,33.84
930512,503,32.55
930527,507,33.84
930542,504,31.90
930557,509,33.84
930572,509,33.52
930587,510,34.80
930602,502,32.87
930617,506,34.16
930632,497,33.52
930647,499,32.87
930662,500,32.87
930677,499,33.52
930692,509,34.16
930707,511,33.84
930722,504,34.16
930737,503,33.84
930752,511,33.52
930767,510,34.16
930782,508,32.55
930797,506,33.52
930812,505,33.84
930827,502,32.55
930842,507,32.23
930857,511,33.84
930872,515,34.16
930887,516,33.84
930902,520,33.84
930917,521,33.84
930932,518,33.84
930947,518,32.87
930962,515,33.84
930977,514,33.52
930992,516,33.52
931007,508,33.52
931022,513,33.19
931037,508,32.55
931052,516,32.87
931067,510,33.84
931082,510,34.16
931097,510,33.19
931112,501,33.19
931127,509,34.16
931142,510,33.84
931157,513,34.16
931172,512,33.84
931187,514,34.16
931202,514,33.84
931217,508,31.90
931232,508,31.90
931247,512,33.84
931262,512,33.84
931277,511,33.84
931292,510,33.19
931307,513,33.84
931322,511,33.52
931337,510,33.84
931352,508,34.48
931367,511,31.90
931382,509,33.84
931397,507,33.84
931412,505,33.84
931427,501,32.23
931442,504,32.23
931457,501,33.52
931472,502,33.52
931487,504,32.87
931502,513,31.58
931517,503,33.52
931532,510,33.84
931547,508,32.87
931562,507,33.84
931577,507,33.52
931592,501,33.19
931607,507,34.16
931622,509,33.84
931637,514,33.52
931652,510,33.52
931667,513,33.84
931682,512,33.84
931698,512,33.52
931713,510,34.16
931728,516,33.84
931744,512,32.55
931759,517,33.84
931774,518,33.52
931789,516,34.16
931804,512,32.55
931819,516,33.84
931835,515,34.16
931850,507,33.52
931866,509,34.16
931881,510,34.16
931896,510,33.84
931912,508,33.84
931927,508,34.16
931943,506,33.52
931959,508,33.84
931974,504,32.55
931989,512,33.19
932004,513,34.48
932020,511,32.23
932035,510,31.90
932050,513,33.84
932065,504,34.16
932080,511,33.84
932095,506,34.16
932111,507,32.87
932126,504,32.23
932142,506,33.84
932158,503,33.52
932173,506,33.84
932189,509,33.84
932204,510,33.84
932220,511,34.16
932236,504,32.55
932251,511,33.52
932267,510,33.19
932283,512,34.48
932299,508,32.23
932314,512,33.84
932330,511,33.84
932346,506,33.19
932362,507,32.87
932378,518,33.84
932393,519,33.84
932409,518,32.23
932425,524,33.52
932441,523,32.55
932457,527,34.16
932472,528,33.52
932488,530,33.84
932503,533,33.52
932519,530,34.48
932535,533,34.16
932551,538,33.84
932566,534,33.52
932582,529,33.84
932597,524,34.16
932613,519,33.19
932629,505,32.55
932644,510,34.16
932660,509,33.84
932676,510,32.87
932691,506,32.23
932707,512,32.87
932722,511,34.16
932738,512,34.16
932753,513,33.52
932769,516,33.84
932784,516,32.55
932799,515,33.84
932815,509,32.55
932830,517,34.16
932846,518,33.84
932861,518,33.84
932877,519,34.16
932893,515,33.19
932908,517,33.84
932924,514,34.16
932939,514,34.16
932954,506,33.52
932969,512,33.52
932984,509,33.84
932999,498,32.55
933015,504,34.16
933030,501,32.87
933045,497,33.84
933060,501,33.84
933075,501,33.84
933090,502,34.16
933105,507,32.87
933120,503,31.90
933135,508,33.84
933150,499,32.87
933165,502,32.55
933180,504,33.84
933195,504,33.84
933210,498,32.87
933226,500,32.55
933241,505,33.52
933256,512,34.16
933271,512,34.16
933286,517,34.16
933301,518,34.16
933316,512,32.55
933331,513,33.19
933346,519,34.16
933361,509,33.19
933376,510,33.19
933391,512,32.87
933406,512,31.90
933421,514,33.52
933436,516,33.84
933451,514,33.84
933466,511,33.84
933481,514,34.48
933496,502,32.87
933511,507,32.55
933526,503,33.84
933541,506,33.84
933556,508,34.16
933571,507,33.52
933586,508,33.84
933601,506,34.16
933616,505,34.16
933631,505,33.19
933646,502,34.16
933661,501,33.84
933676,501,32.23
933691,505,33.84
933706,506,33.52
933721,510,33.84
933736,513,34.16
933751,506,33.52
933766,512,34.16
933781,510,34.16
933796,512,31.90
933811,509,33.52
933826,510,33.84
933841,506,34.16
933856,508,32.87
933871,515,32.55
933886,511,32.55
933901,510,32.23
933916,512,34.16
933931,505,32.87
933946,507,33.84
933961,508,33.84
933976,510,33.84
933991,510,34.16
934006,512,33.52
934021,517,33.84
934036,518,34.16
934051,518,32.23
934066,522,33.52
934081,521,33.84
934096,522,34.16
934111,520,33.52
934126,519,33.84
934141,522,34.16
934156,523,34.16
934171,523,33.52
934186,513,33.84
934201,520,34.16
934216,518,32.23
934231,514,32.55
934246,517,32.87
934261,510,32.55
934276,508,33.84
934291,508,32.55
934306,509,31.90
934321,510,33.19
934336,512,34.16
934351,508,32.23
934366,507,33.52
934381,507,33.52
934396,508,33.84
934411,504,33.84
934426,501,33.84
934441,500,33.52
934456,502,33.84
934472,510,33.84
934487,510,33.84
934502,510,33.84
934517,512,33.52
934532,510,33.84
934547,511,33.52
934563,502,32.87
934578,511,33.84
934593,512,34.48
934608,511,32.55
934624,507,33.84
934640,507,33.84
934655,508,32.23
934671,512,33.84
934686,518,33.52
934702,517,33.84
934718,521,33.52
934733,520,34.16
934749,512,34.16
934765,520,34.16
934780,516,33.52
934796,518,34.16
934811,519,33.84
934827,517,33.52
934843,516,33.84
934858,509,33.52
934874,512,32.55
934890,517,34.16
934905,513,32.23
934921,509,32.87
934937,515,33.84
934953,509,33.19
934969,516,33.84
934985,511,33.52
935000,513,32.55
935016,513,33.19
935031,518,33.52
935047,516,33.84
935063,515,33.84
935078,508,32.23
935094,506,32.55
935109,510,33.84
935125,512,33.84
935141,512,34.16
935156,508,33.52
935172,512,34.16
935188,512,33.84
935204,519,34.16
935220,506,33.52
935236,515,33.52
935252,513,33.52
935268,514,32.23
935284,507,33.84
935299,514,33.84
935315,505,32.87
935330,506,34.16
935346,505,33.52
935362,509,33.84
935377,512,32.87
935392,508,33.84
935407,507,34.16
935423,504,32.23
935438,506,32.55
935454,510,34.16
935470,513,33.84
935485,515,33.19
935501,513,32.55
935516,511,31.90
935532,517,33.84
935548,515,34.16
935563,515,33.84
935579,512,33.19
935594,511,33.19
935609,504,32.55
935624,510,33.52
935640,512,33.84
935656,507,33.84
935671,510,33.84
935687,512,32.55
935702,515,33.84
935717,516,33.84
935732,509,33.84
935747,510,33.19
935762,510,33.19
935777,510,32.87
935792,514,33.84
935808,514,32.87
935823,508,32.23
935838,505,33.52
935853,510,33.84
935868,505,32.87
935883,511,33.84
935898,511,34.16
935913,504,33.52
935928,507,34.16
935943,507,33.52
935958,508,32.23
935973,507,31.90
935988,509,32.55
936003,502,32.87
936018,504,33.84
936033,510,34.16
936048,509,32.55
936063,509,33.84
936078,501,32.55
936093,507,33.84
936108,505,32.87
936123,508,33.84
936138,509,32.23
936153,507,33.84
936168,503,34.16
936183,514,32.55
936198,514,33.84
936213,512,32.23
936228,518,33.84
936243,520,33.52
936258,522,33.84
936273,527,31.90
936288,528,34.16
936303,517,33.84
936318,522,34.16
936333,524,32.23
936348,515,34.16
936363,515,34.16
936378,504,32.87
936393,509,33.19
936408,507,34.16
936423,506,33.84
936438,508,33.84
936453,509,33.84
936468,513,32.23
936483,513,33.84
936498,511,33.84
936513,510,33.52
936528,508,33.84
936543,507,32.87
936558,509,33.84
936573,513,33.84
936588,504,33.19
936603,508,32.23
936618,507,33.84
936633,514,33.84
936648,509,32.55
936663,511,34.16
936678,502,33.84
936693,506,33.84
936708,499,33.84
936723,508,31.90
936738,503,32.87
936753,505,32.55
936768,508,32.87
936783,514,34.16
936798,517,33.84
936813,515,33.84
936828,509,32.87
936843,512,34.16
936858,511,32.55
936873,508,34.16
936888,513,33.84
936903,512,32.55
936918,513,33.84
936933,510,32.87
936948,513,33.52
936963,518,34.16
936978,508,33.84
936993,516,33.19
937008,518,33.84
937023,517,33.84
937038,517,34.16
937053,516,33.84
937068,514,33.52
937083,511,32.23
937098,512,34.16
937113,512,33.84
937128,505,33.52
937143,505,33.84
937158,514,33.84
937173,515,34.16
937188,518,33.84
937203,520,34.16
937218,521,33.19
937233,518,32.23
937248,519,34.16
937263,518,33.52
937278,513,33.84
937293,514,33.52
937309,507,32.55
937324,503,33.84
937339,501,34.16
937354,501,33.52
937369,495,32.55
937384,494,32.23
937399,501,34.16
937415,506,33.84
937430,506,34.16
937446,503,32.23
937461,502,34.16
937477,506,33.52
937492,507,33.84
937508,509,31.90
937524,515,34.16
937539,511,32.23
937554,519,33.84
937569,517,33.19
937584,516,33.84
937599,518,33.84
937615,517,32.55
937630,513,32.87
937645,510,34.16
937660,504,32.23
937675,506,34.16
937690,504,34.16
937706,502,32.55
937722,504,32.23
937737,508,33.84
937752,511,33.84
937767,507,33.84
937783,518,33.84
937798,517,33.84
937814,522,32.23
937829,516,33.84
937844,514,34.16
937859,507,33.84
937875,514,33.84
937890,515,33.84
937906,518,33.84
937922,515,34.16
937937,507,33.52
937953,516,33.84
937968,520,33.84
937984,516,34.16
938000,515,34.16
938015,511,31.90
938031,515,33.84
938046,506,32.23
938062,513,34.16
938078,510,34.16
938093,507,32.55
938109,512,32.23
938125,504,33.84
938140,509,31.90
938156,507,32.23
938172,512,33.19
938187,509,31.90
938202,514,31.90
938217,511,33.84
938232,506,32.87
938247,511,33.52
938263,509,33.84
938278,505,32.55
938293,508,34.16
938308,501,33.19
938323,506,34.16
938338,509,33.52
938353,502,33.19
938368,504,32.55
938383,511,33.19
938398,503,33.84
938413,505,33.84
938428,509,33.52
938443,507,33.52
938458,508,34.16
938473,509,34.16
938488,507,32.23
938503,519,33.19
938519,521,33.84
938534,523,34.16
938549,520,33.84
938564,521,33.52
938579,515,32.23
938594,516,33.84
938609,508,34.16
938624,508,31.90
938639,512,32.23
938654,511,34.16
938669,514,33.84
938684,513,33.84
938699,514,34.16
938714,512,34.16
938729,512,33.84
938744,511,33.84
938759,512,33.84
938774,510,34.16
938789,505,34.16
938804,511,34.16
938819,512,33.84
938834,507,32.87
938849,506,33.52
938864,509,31.90
938879,512,33.19
938894,512,34.16
938909,510,33.84
938924,509,32.87
938939,505,32.55
938954,510,33.84
938969,508,34.16
938984,507,34.16
938999,502,33.84
939014,510,34.16
939029,509,33.84
939044,502,32.23
939059,504,32.23
939074,508,33.84
939089,504,33.52
939104,511,33.84
939119,510,33.84
939134,511,34.16
939149,513,32.55
939164,511,33.84
939179,514,31.90
939194,510,33.52
939209,510,33.84
939224,511,33.52
939239,513,32.87
939254,518,33.19
939269,520,32.55
939284,524,33.84
939299,520,33.84
939314,520,32.23
939329,519,33.84
939344,518,33.84
939359,514,33.84
939374,513,33.84
939389,504,32.55
939404,512,32.23
939419,516,32.23
939434,515,33.84
939449,516,33.84
939464,514,34.16
939479,514,33.52
939494,514,33.84
939509,510,33.84
939524,510,33.52
939539,510,32.55
939554,509,33.52
939569,512,34.16
939584,514,33.84
939599,514,33.84
939614,507,33.84
939629,505,33.52
939644,503,32.87
939659,507,34.16
939674,504,32.55
939689,509,34.16
939704,509,33.19
939719,510,33.84
939734,508,32.55
939749,504,34.16
939764,509,33.84
939779,503,32.55
939794,509,33.84
939809,507,33.84
939824,505,34.16
939839,498,32.23
939854,510,33.84
939869,503,32.55
939884,511,33.19
939899,511,33.52
939914,514,32.87
939929,510,34.16
939944,509,33.52
939959,508,34.16
939974,507,34.16
939989,508,34.16
940004,509,33.84
940019,511,33.84
940034,507,32.55
940049,516,33.84
940064,519,33.84
940079,519,33.52
940094,522,33.84
940110,522,33.84
940125,520,33.84
940141,515,33.52
940156,516,34.16
940171,517,34.48
940186,517,33.84
940201,518,34.16
940216,516,34.16
940232,515,34.16
940247,512,32.23
940262,512,33.52
940278,513,33.52
940293,514,34.16
940309,514,34.16
940324,508,33.84
940340,514,34.16
940356,512,33.52
940371,511,32.23
940386,507,33.19
940401,515,32.55
940417,511,33.84
940432,512,32.55
940448,516,33.52
940464,516,33.52
940479,510,31.90
940495,515,33.84
940510,513,33.19
940525,507,34.16
940540,509,33.84
940555,510,34.48
940570,509,33.84
940586,503,32.55
940601,510,33.84
940617,513,34.48
940633,511,34.16
940649,513,33.84
940665,515,33.84
940681,509,33.84
940696,512,33.19
940712,516,33.52
940728,514,33.84
940743,505,32.87
940759,512,33.84
940774,512,34.16
940790,516,34.16
940806,514,33.84
940821,518,34.16
940837,521,33.84
940853,516,33.84
940868,515,34.16
940884,517,32.55
940899,519,33.52
940914,520,33.84
940929,516,34.16
940945,515,32.87
940960,508,32.55
940976,509,32.55
940992,503,33.84
941007,511,33.84
941023,512,34.16
941039,512,33.84
941054,505,33.52
941070,514,33.84
941085,513,33.52
941101,514,32.23
941117,517,33.84
941132,514,34.16
941148,518,33.19
941163,515,33.84
941178,514,33.84
941193,510,33.84
941208,503,33.19
941223,510,34.16
941239,508,34.16
941254,507,32.55
941269,510,33.84
941284,506,33.19
941299,507,32.87
941314,512,34.16
941329,511,33.19
941344,511,33.52
941359,509,33.84
941374,506,34.16
941390,503,32.55
941405,506,33.52
941420,510,34.16
941435,509,33.84
941450,511,33.52
941465,514,33.84
941480,514,33.84
941495,513,33.84
941510,513,32.23
941525,513,34.48
941540,517,32.87
941555,519,34.16
941571,513,33.19
941586,518,32.23
941601,521,34.16
941616,519,34.48
941631,521,34.16
941646,519,34.16
941661,518,33.84
941676,516,34.16
941691,512,33.84
941706,504,33.52
941721,507,33.84
941736,510,33.84
941751,512,34.16
941766,513,32.23
941781,509,32.23
941796,506,33.52
941811,511,33.84
941826,514,33.84
941841,512,34.16
941856,512,32.55
941871,512,33.84
941886,511,34.16
941901,511,33.52
941916,509,31.90
941931,512,34.16
941946,511,33.84
941961,514,34.16
941976,509,32.87
941991,505,33.84
942006,507,34.16
942021,507,33.84
942036,509,33.52
942051,511,34.16
942066,513,33.84
942081,506,34.16
942096,513,33.84
942111,510,33.52
942126,502,32.87
942141,507,33.84
942156,501,32.23
942171,509,33.84
942186,510,33.84
942201,509,33.52
942216,510,34.16
942231,505,33.84
942246,515,33.84
942261,514,33.52
942276,513,34.48
942291,515,33.84
942306,517,33.52
942321,513,33.84
942336,523,32.87
942351,520,34.16
942366,523,33.84
942381,521,32.87
942396,518,32.55
942411,518,33.84
942426,516,34.16
942441,513,33.19
942456,509,34.16
942471,511,32.55
942486,509,33.84
942501,513,33.84
942516,514,33.84
942531,507,32.55
942546,514,34.16
942561,515,34.16
942576,515,33.52
942591,515,34.16
942606,512,33.84
942621,514,33.84
942636,514,33.52
942651,514,33.84
942666,515,33.19
942681,515,33.84
942696,514,33.84
942711,505,33.19
942726,506,32.55
942741,509,34.16
942756,510,32.87
942771,506,32.55
942786,507,33.84
942801,507,33.84
942816,510,33.84
942831,511,33.84
942846,510,32.23
942861,509,33.52
942876,505,33.84
942891,512,34.16
942906,512,33.84
942921,502,32.55
942936,510,34.16
942951,511,33.84
942966,513,33.84
942981,513,33.52
942996,511,32.23
943011,516,33.19
943026,508,32.55
943041,518,32.55
943056,510,33.52
943071,519,34.16
943086,520,33.84
943101,514,33.84
943116,522,34.16
943131,522,33.19
943146,512,33.19
943161,519,34.16
943176,516,34.16
943191,512,32.23
943206,514,32.87
943221,513,33.52
943236,506,32.23
943251,513,33.84
943266,508,33.84
943281,517,33.84
943296,510,33.19
943311,519,33.52
943326,521,33.84
943341,517,33.84
943356,511,33.19
943371,515,33.84
943386,518,33.84
943401,510,33.84
943416,515,34.16
943431,511,32.87
943446,518,33.52
943461,507,33.84
943476,514,34.16
943491,511,33.84
943506,509,33.19
943521,508,32.55
943536,504,32.23
943551,506,33.52
943566,500,33.84
943581,505,32.23
943596,507,33.52
943611,507,32.23
943626,510,33.19
943641,508,32.23
943656,507,33.52
943671,510,33.84
943686,512,32.87
943701,505,32.87
943716,508,33.19
943731,517,33.19
943746,517,33.84
943761,516,33.52
943776,515,34.16
943791,508,32.55
943806,513,31.90
943821,518,33.84
943836,520,33.52
943851,525,32.55
943866,519,32.23
943881,523,34.16
943896,523,33.19
943911,524,33.84
943926,521,33.84
943941,520,33.84
943956,519,33.84
943971,516,32.87
943986,514,32.55
944001,516,33.84
944016,514,33.52
944031,518,32.87
944046,513,33.84
944061,516,32.23
944076,520,34.16
944091,511,32.87
944106,518,32.55
944121,516,32.55
944136,513,33.84
944151,505,33.52
944166,513,32.55
944181,512,33.19
944196,509,32.55
944211,507,33.84
944226,501,33.84
944241,510,32.55
944256,508,33.84
944271,509,33.84
944286,512,32.87
944301,513,34.16
944316,518,34.16
944331,509,32.87
944346,515,33.84
944361,514,33.52
944376,514,33.84
944391,503,33.84
944406,505,32.87
944421,501,31.90
944436,507,33.84
944451,509,33.52
944466,511,33.52
944481,503,33.52
944496,509,34.16
944511,504,33.19
944526,503,32.23
944541,506,34.16
944556,504,34.16
944571,506,33.19
944586,507,33.52
944601,497,33.84
944616,505,34.48
944631,506,34.16
944646,503,31.58
944661,501,33.84
944676,507,33.84
944691,506,32.23
944706,503,33.84
944721,504,33.84
944736,507,34.16
944751,509,33.84
944766,506,33.52
944781,511,33.84
944796,504,34.48
944811,512,32.55
944826,510,34.16
944841,512,33.84
944856,513,33.52
944871,511,33.84
944886,507,32.55
944901,511,32.55
944916,514,33.52
944931,516,34.16
944946,509,33.84
944961,512,32.23
944976,513,34.16
944991,505,32.23
945006,508,32.55
945021,500,33.19
945036,507,34.16
945051,504,33.19
945066,509,33.19
945081,508,33.84
945096,506,32.87
945111,505,32.55
945126,507,33.19
945141,504,33.84
945156,508,33.84
945171,505,33.52
945186,499,33.84
945201,509,33.52
945216,508,33.84
945231,510,33.84
945246,509,33.52
945261,515,33.52
945276,513,33.52
945291,511,34.16
945306,516,34.16
945321,519,34.48
945336,514,32.87
945351,520,33.84
945366,513,33.52
945381,520,33.84
945396,520,33.84
945411,514,32.23
945426,516,34.16
945441,511,34.16
945456,510,33.84
945471,508,34.16
945486,511,34.16
945501,508,33.84
945516,512,34.16
945531,511,33.52
945546,507,33.84
945561,515,33.52
945576,515,34.16
945591,511,33.84
945606,504,33.84
945621,514,32.87
945636,513,33.84
945651,512,33.84
945666,506,34.16
945681,506,33.52
945696,512,32.55
945711,514,33.84
945726,506,33.84
945741,511,33.52
945756,507,32.23
945771,507,32.23
945786,509,34.16
945801,503,32.87
945816,511,33.52
945831,506,33.52
945846,503,31.90
945861,509,33.84
945876,512,34.48
945891,506,33.84
945906,509,33.19
945921,507,33.84
945936,509,33.84
945951,512,33.84
945966,516,32.55
945981,518,33.84
945996,521,33.52
946011,524,34.16
946026,524,33.84
946041,522,33.84
946056,515,34.16
946071,516,33.84
946086,517,34.16
946101,515,32.55
946116,513,33.84
946131,507,32.55
946146,512,32.23
946161,513,34.16
946176,510,32.87
946191,511,34.16
946206,510,33.84
946221,510,33.52
946236,504,33.84
946251,513,34.16
946266,512,33.84
946281,515,34.16
946296,517,33.84
946311,517,33.52
946326,508,34.16
946341,513,33.84
946356,509,32.87
946371,507,34.16
946386,510,33.52
946401,512,33.84
946416,511,34.48
946431,513,33.52
946446,512,33.52
946461,512,33.84
946476,512,32.55
946491,512,33.84
946506,512,33.52
946521,511,33.84
946536,512,33.52
946551,507,32.55
946566,505,32.55
946581,513,33.84
946596,507,33.84
946611,512,33.84
946626,509,33.19
946641,508,34.16
946656,511,34.16
946671,514,33.52
946686,517,32.55
946701,518,33.84
946716,525,32.55
946731,526,34.48
946746,525,34.48
946761,518,32.55
946776,516,33.84
946791,517,33.52
946806,518,32.55
946821,514,33.19
946836,514,32.55
946851,506,32.23
946866,512,33.19
946881,513,33.84
946896,507,34.16
946911,515,33.19
946926,516,32.23
946941,518,32.23
946956,508,33.84
946971,515,33.52
946986,512,33.84
947001,516,34.16
947016,517,33.84
947031,514,32.23
947046,509,32.55
947061,515,33.19
947076,517,33.52
947091,510,33.84
947106,506,33.84
947121,512,32.55
947136,502,33.84
947151,509,32.87
947166,512,32.23
947181,513,33.84
947196,513,33.84
947211,513,34.16
947226,514,32.23
947241,511,34.16
947256,512,33.84
947271,503,33.84
947286,509,32.87
947301,508,33.84
947316,507,34.16
947331,516,31.58
947346,513,34.16
947361,514,33.84
947376,521,33.84
947391,521,34.16
947406,519,33.52
947421,520,33.52
947436,521,34.16
947451,524,33.84
947466,522,33.84
947481,520,34.16
947496,517,32.87
947511,518,33.19
947526,508,33.84
947541,515,34.16
947556,510,33.84
947571,516,34.16
947586,511,33.52
947601,513,34.16
947616,513,33.84
947631,514,33.84
947646,515,34.16
947661,516,33.52
947676,516,32.55
947691,515,33.84
947706,513,34.16
947721,510,31.58
947736,507,33.84
947751,514,32.87
947766,511,33.84
947781,515,33.52
947796,514,33.19
947811,515,33.52
947826,511,33.52
947841,508,31.58
947856,509,34.16
947871,507,33.84
947886,503,33.19
947901,502,34.16
947916,503,33.84
947931,503,34.16
947946,510,32.55
947961,516,33.84
947976,512,33.84
947991,512,33.19
948006,506,33.84
948021,515,32.55
948036,511,33.52
948051,516,33.19
948066,515,33.84
948081,515,33.84
948096,520,33.52
948111,522,32.23
948126,514,33.19
948141,509,32.23
948156,515,33.52
948171,509,32.23
948186,510,33.84
948201,511,32.55
948216,507,32.87
948231,511,34.16
948246,514,34.16
948261,517,33.19
948276,513,34.16
948291,516,32.87
948306,514,32.87
948321,512,33.84
948336,512,34.16
948351,510,34.16
948366,513,32.55
948381,512,33.84
948396,515,34.16
948411,515,33.84
948426,513,33.84
948441,512,33.52
948456,509,33.84
948471,504,32.55
948486,509,32.55
948501,501,33.52
948516,508,34.16
948531,503,34.16
948546,505,32.87
948561,511,34.48
948576,512,32.23
948591,508,33.84
948606,508,33.84
948621,509,33.84
948636,509,34.16
948651,506,33.84
948666,508,34.48
948681,503,34.16
948696,509,32.55
948711,514,33.84
948726,516,33.19
948741,511,32.87
948756,516,34.16
948771,516,32.55
948786,513,32.23
948801,519,33.84
948816,520,33.52
948831,516,33.52
948846,511,33.84
948861,513,32.55
948876,516,32.87
948891,513,32.87
948906,510,33.84
948921,512,33.52
948936,504,33.52
948951,513,34.16
948966,513,34.16
948981,512,34.16
948996,513,33.84
949011,516,33.84
949026,514,34.16
949041,507,33.52
949056,513,33.84
949071,503,33.84
949086,512,33.52
949101,502,32.55
949116,503,33.84
949131,509,32.23
949146,503,34.16
949161,511,33.84
949176,512,32.87
949191,509,33.84
949206,507,34.16
949221,506,33.52
949236,506,33.84
949251,505,33.84
949266,506,34.16
949281,505,34.16
949296,500,32.87
949311,511,33.19
949326,505,33.52
949341,509,34.16
949356,509,33.84
949371,505,34.16
949386,507,33.84
949401,507,33.84
949416,508,33.52
949431,505,32.23
949446,513,33.19
949461,508,32.23
949476,515,32.23
949491,517,32.55
949506,516,34.16
949521,513,34.16
949536,519,34.16
949551,512,33.84
949566,514,32.55
949581,518,32.87
949596,520,34.16
949611,518,34.16
949626,517,33.84
949641,513,34.16
949656,514,32.23
949671,510,32.87
949686,510,33.84
949701,508,34.16
949716,507,33.52
949731,510,33.84
949746,511,34.16
949761,513,33.84
949776,516,32.55
949791,514,33.84
949806,514,31.90
949821,510,33.84
949836,510,33.19
949851,504,32.87
949866,509,34.16
949881,508,33.52
949896,505,31.90
949911,508,34.16
949926,507,33.84
949941,509,32.55
949956,504,32.55
949971,508,34.16
949986,506,32.55
950001,503,33.84
950016,505,33.84
950031,508,33.84
950046,509,34.16
950061,509,32.55
950076,511,33.19
950091,506,32.87
950106,512,33.84
950121,505,32.55
950136,504,32.55
950151,506,33.84
950166,504,32.87
950181,501,33.84
950196,507,34.16
950211,512,33.84
950226,514,33.52
950241,514,33.52
950256,514,33.52
950271,512,34.16
950286,507,33.52
950301,511,32.87
950316,517,33.19
950331,522,33.84
950346,523,33.52
950361,522,32.23
950376,522,33.19
950391,511,33.52
950406,509,34.16
950421,511,34.48
950436,509,34.16
950451,512,34.16
950466,505,32.55
950481,513,33.52
950496,506,34.16
950511,514,33.84
950526,513,34.80
950541,509,33.19
950556,513,33.84
950571,511,33.84
950586,511,33.52
950601,516,34.16
950616,514,33.84
950631,516,32.23
950646,516,33.52
950661,511,32.87
950676,516,34.16
950691,516,34.16
950706,506,33.84
950721,511,34.16
950736,510,32.23
950751,510,32.55
950766,509,33.84
950781,507,34.16
950796,501,33.19
950811,511,33.84
950826,507,31.90
950841,511,34.48
950856,506,33.84
950871,503,32.23
950886,511,34.16
950901,507,33.52
950916,506,32.55
950931,505,33.84
950946,509,32.55
950961,515,32.87
950976,514,34.48
950991,512,33.84
951006,511,33.84
951021,507,33.52
951036,510,34.16
951051,506,32.55
951066,515,33.84
951081,507,33.84
951096,520,33.84
951111,522,32.23
951126,522,33.52
951141,520,32.23
951156,520,34.48
951171,518,32.55
951186,513,32.55
951201,506,33.52
951216,513,34.16
951231,513,31.90
951246,513,34.16
951261,515,33.52
951276,512,34.16
951291,511,33.52
951306,506,34.16
951321,507,33.84
951336,512,32.55
951351,509,33.52
951366,511,33.84
951381,508,34.16
951396,516,33.84
951411,516,34.48
951426,516,33.84
951441,509,33.52
951456,515,34.16
951471,513,34.16
951486,502,33.84
951501,510,34.16
951516,510,33.84
951531,503,33.52
951546,510,33.84
951561,506,33.52
951576,511,34.48
951591,513,34.16
951606,510,33.84
951621,499,33.19
951636,506,33.84
951651,504,32.23
951667,500,34.16
951682,507,32.23
951697,507,33.84
951712,513,32.55
951727,514,32.55
951742,507,34.16
951757,505,33.84
951772,511,33.52
951788,503,33.52
951804,510,33.52
951819,509,33.84
951834,511,33.84
951849,514,33.84
951865,516,33.84
951880,520,32.23
951896,512,33.19
951912,519,34.48
951927,520,34.16
951942,520,32.55
951957,517,32.55
951972,517,33.84
951987,515,32.55
952002,514,33.19
952017,512,33.84
952033,513,34.80
952048,514,33.84
952063,513,33.52
952079,509,32.23
952095,512,32.55
952111,513,33.84
952126,514,34.16
952142,512,33.52
952158,508,32.87
952174,516,32.87
952190,506,33.84
952206,516,33.19
952221,512,33.84
952237,506,32.55
952253,511,33.84
952268,511,33.84
952284,511,34.16
952299,508,33.19
952314,505,33.84
952329,508,33.52
952345,512,33.84
952360,510,33.84
952375,516,34.16
952391,507,33.84
952407,515,34.16
952422,514,32.55
952437,513,34.16
952453,509,34.16
952468,508,34.16
952484,509,34.16
952500,507,32.23
952515,503,33.19
952530,510,33.84
952545,509,34.16
952561,507,32.23
952576,506,32.23
952592,501,34.16
952608,506,33.84
952623,503,34.16
952639,512,34.16
952654,513,33.52
952670,517,33.52
952686,511,33.84
952701,511,33.52
952717,518,33.84
952732,516,33.84
952747,508,33.84
952762,512,32.23
952777,511,32.87
952792,511,33.84
952808,508,32.87
952823,512,33.84
952838,504,33.84
952853,506,32.55
952868,511,32.87
952883,511,32.87
952898,507,33.19
952913,514,34.16
952928,510,32.87
952943,512,33.84
952958,508,33.52
952973,503,33.52
952989,500,33.84
953004,505,33.84
953019,507,32.23
953034,507,33.52
953049,508,33.84
953064,507,34.16
953079,513,33.52
953094,508,32.23
953109,513,33.84
953124,509,34.48
953139,509,33.84
953154,507,33.84
953169,501,33.84
953184,503,33.84
953199,501,34.48
953214,503,32.23
953229,507,34.16
953244,507,33.84
953259,510,34.16
953274,506,33.84
953289,509,33.84
953304,506,32.87
953319,503,33.52
953334,503,34.16
953349,505,33.19
953364,508,32.23
953379,501,33.52
953394,504,33.19
953409,514,34.16
953424,511,33.19
953439,517,33.84
953454,511,33.84
953469,516,33.52
953484,515,33.52
953499,521,32.55
953514,517,33.84
953529,523,33.84
953544,523,33.19
953559,519,34.16
953574,517,34.16
953589,524,33.19
953604,522,34.16
953619,519,34.16
953634,519,33.19
953649,516,33.19
953664,516,33.19
953679,510,32.87
953694,509,32.55
953709,507,32.87
953724,506,32.55
953739,509,34.16
953754,501,33.52
953769,501,34.16
953784,508,34.48
953799,509,33.84
953814,510,34.16
953829,512,34.16
953844,509,32.23
953859,517,32.55
953874,514,33.52
953889,514,34.16
953904,513,33.84
953919,510,34.48
953934,503,33.52
953949,507,32.55
953964,504,32.87
953979,513,33.52
953994,515,33.19
954009,505,33.84
954024,511,33.84
954039,512,33.84
954054,511,33.52
954069,511,33.52
954084,507,34.16
954099,510,32.87
954114,509,32.55
954129,511,34.16
954144,514,33.52
954159,518,33.19
954174,520,34.16
954189,519,33.19
954205,522,32.23
954220,515,32.87
954235,518,33.19
954250,515,32.55
954266,515,34.16
954281,514,33.84
954296,508,33.52
954311,514,34.16
954326,515,33.84
954341,509,32.87
954356,506,33.84
954371,516,33.84
954387,515,34.48
954403,517,34.16
954418,505,33.84
954434,513,32.87
954449,515,33.19
954465,515,34.16
954481,512,33.19
954496,516,33.19
954511,507,32.23
954527,513,33.84
954543,516,32.55
954559,510,32.87
954574,509,32.23
954590,507,32.23
954605,509,33.84
954621,513,33.52
954637,503,32.23
954653,509,33.52
954668,509,33.84
954684,512,33.84
954700,509,34.16
954715,511,34.16
954731,505,33.84
954746,512,34.16
954762,513,34.16
954777,514,34.16
954793,510,32.23
954809,513,34.16
954824,513,34.16
954840,516,33.84
954855,508,32.55
954871,514,33.84
954887,514,33.84
954902,509,33.52
954918,514,32.55
954933,515,34.16
954949,512,34.16
954965,511,32.55
954980,518,33.52
954996,515,34.16
955011,511,33.84
955027,513,34.16
955043,512,33.19
955058,512,33.84
955074,506,32.23
955090,508,32.23
955105,512,33.19
955121,509,33.52
955136,502,32.55
955152,511,32.55
955168,504,32.55
955183,506,33.84
955198,505,32.23
955213,509,34.16
955229,511,33.19
955244,509,34.16
955260,512,33.52
955275,514,33.52
955290,506,32.87
955305,513,33.84
955321,507,32.55
955337,513,32.55
955352,506,33.52
955368,503,32.23
955383,500,33.52
955398,499,33.52
955413,504,32.87
955428,503,33.84
955443,504,33.84
955458,507,33.84
955473,506,33.52
955489,503,33.52
955504,507,33.84
955519,503,33.84
955534,506,33.84
955549,502,32.23
955564,515,33.52
955579,518,34.48
955594,517,32.55
955609,527,33.84
955624,527,33.84
955639,524,32.87
955654,521,33.52
955670,524,33.84
955685,522,34.16
955700,521,33.84
955715,509,34.16
955730,507,33.84
955745,516,33.84
955760,506,33.84
955775,512,34.16
955790,503,32.23
955805,508,34.16
955821,506,34.16
955836,505,34.16
955851,497,32.87
955866,509,33.84
955881,509,33.52
955896,509,32.23
955911,513,34.16
955926,512,33.84
955941,515,33.84
955956,512,34.48
955971,513,34.16
955986,509,31.90
956001,501,34.16
956016,506,34.16
956031,505,32.87
956046,502,33.84
956061,508,32.55
956076,509,33.19
956091,509,33.19
956106,512,32.87
956121,512,32.87
956136,510,32.23
956151,509,31.90
956166,510,34.16
956181,509,34.16
956196,502,33.84
956211,503,34.48
956226,506,32.55
956241,513,33.84
956256,511,33.52
956271,509,34.16
956286,510,33.84
956301,502,32.87
956316,507,32.23
956331,515,33.52
956346,516,34.48
956361,519,33.52
956376,521,34.16
956391,522,32.55
956406,523,33.52
956421,518,33.84
956436,520,32.87
956451,509,33.84
956466,514,33.52
956481,512,32.87
956496,511,33.19
956511,509,33.19
956526,513,34.16
956541,511,34.48
956556,508,33.84
956571,513,34.16
956586,511,33.52
956601,512,34.16
956616,514,32.55
956631,511,34.16
956646,509,33.84
956661,513,33.84
956676,514,33.52
956691,514,33.84
956706,513,33.84
956722,512,33.84
956737,507,32.87
956752,509,33.84
956767,506,34.16
956782,503,32.55
956797,501,33.52
956812,505,33.52
956827,507,33.84
956843,513,32.87
956858,515,33.52
956873,510,32.23
956888,509,33.52
956904,514,33.84
956919,515,32.55
956934,512,33.84
956949,507,32.55
956964,509,33.84
956979,506,32.55
956994,510,34.16
957009,511,34.16
957025,512,33.84
957041,503,33.52
957056,505,32.55
957072,510,33.84
957087,509,34.16
957103,500,33.84
957119,510,32.87
957135,512,33.52
957150,514,33.84
957166,515,32.55
957181,516,33.19
957197,519,34.16
957212,512,33.84
957228,519,33.84
957244,513,33.52
957259,518,34.16
957275,517,32.55
957290,510,32.87
957306,513,32.23
957322,518,33.52
957337,514,33.84
957353,514,33.52
957368,517,33.52
957383,514,33.52
957399,513,34.16
957414,513,33.84
957430,505,33.52
957445,515,32.87
957461,507,33.84
957477,509,34.16
957493,512,34.16
957509,510,34.16
957525,513,34.16
957541,512,33.84
957557,514,34.16
957573,510,34.16
957589,514,34.16
957605,512,34.16
957621,511,33.84
957636,509,34.16
957652,510,32.55
957668,509,34.16
957684,511,33.84
957700,508,34.48
957716,503,33.19
957731,505,33.52
957747,512,32.55
957762,507,32.23
957777,514,33.84
957793,505,32.87
957808,513,34.16
957824,515,33.84
957839,516,33.84
957855,513,32.87
957871,520,34.16
957886,518,32.23
957902,519,33.52
957917,518,33.84
957933,514,33.84
957948,507,33.84
957963,510,34.16
957978,508,31.90
957993,510,33.52
958009,508,31.90
958024,510,33.52
958039,512,33.84
958054,505,33.84
958069,510,34.16
958084,511,34.16
958100,511,33.52
958115,509,33.52
958130,507,34.16
958145,510,34.16
958160,497,32.23
958175,488,34.16
958191,488,33.52
958206,483,32.87
958221,489,34.16
958236,489,33.84
958252,503,34.48
958267,508,34.16
958282,511,33.52
958297,521,33.52
958312,521,33.52
958327,525,32.55
958342,531,33.52
958357,530,32.23
958372,530,33.84
958387,522,32.23
958402,515,34.16
958417,502,33.84
958432,496,33.19
958447,483,33.84
958462,480,33.52
958477,470,32.55
958492,479,33.84
958507,487,33.84
958522,486,32.23
958537,499,32.23
958552,505,32.23
958567,516,33.84
958582,525,33.84
958597,529,33.84
958612,528,32.55
958627,537,33.84
958642,536,33.52
958657,533,33.19
958672,528,34.16
958687,517,33.84
958702,515,31.90
958717,517,34.16
958732,516,33.84
958747,516,32.87
958762,518,32.23
958777,516,34.16
958792,518,33.84
958807,514,34.48
958822,513,34.16
958837,510,33.52
958852,498,33.19
958867,500,32.87
958882,502,33.84
958897,506,33.84
958912,500,31.90
958927,505,33.19
958942,507,34.16
958957,507,34.16
958972,509,32.23
958987,506,34.48
959002,500,32.55
959017,492,32.23
959032,494,34.16
959047,483,32.87
959062,486,33.84
959077,486,33.84
959092,488,32.87
959107,490,33.52
959122,495,33.52
959137,493,32.87
959152,504,33.84
959167,511,34.16
959182,514,34.16
959197,517,33.84
959212,517,32.23
959227,520,32.23
959242,522,33.19
959257,524,34.16
959272,525,33.52
959287,515,32.87
959302,513,33.19
959317,511,33.52
959332,503,33.52
959347,504,32.87
959362,509,33.52
959377,511,33.52
959392,519,31.90
959407,521,33.52
959422,512,32.87
959437,515,32.55
959452,511,34.16
959467,517,34.16
959482,507,34.16
959497,505,34.16
959512,510,33.84
959527,516,33.84
959542,516,32.23
959557,512,32.87
959572,515,33.19
959587,516,33.84
959602,510,33.84
959617,514,34.16
959632,514,33.84
959647,514,32.23
959662,510,32.55
959677,516,33.84
959692,518,33.52
959707,517,34.16
959722,517,34.80
959737,511,32.55
959752,511,33.52
959767,510,34.16
959782,512,31.90
959797,507,34.16
959812,508,34.16
959827,509,34.16
959842,508,34.16
959857,509,32.55
959872,514,34.48
959887,512,33.84
959902,512,34.16
959917,501,32.55
959932,502,32.55
959947,510,34.16
959962,510,34.16
959977,511,34.16
959992,513,32.23
960007,515,33.84
960022,514,33.19
960037,518,34.16
960052,517,33.84
960067,506,34.16
960082,510,32.23
960097,505,33.19
960112,513,33.84
960127,516,34.16
960142,520,33.84
960157,520,33.84
960172,524,33.84
960187,522,33.19
960202,522,34.16
960217,516,32.23
960232,509,33.84
960247,514,33.84
960262,514,33.84
960277,514,32.87
960292,508,32.55
960307,510,32.23
960322,511,33.84
960337,507,33.84
960352,509,34.16
960367,507,33.84
960382,499,33.52
960397,499,33.52
960412,509,33.84
960427,514,34.16
960442,513,34.16
960457,518,32.87
960472,518,33.84
960487,515,33.19
960502,521,34.16
960517,518,33.84
960532,520,33.84
960547,520,33.84
960562,520,33.84
960577,521,33.52
960592,520,32.55
960607,530,32.55
960622,528,34.16
960637,525,32.23
960652,527,34.48
960667,527,34.16
960682,524,34.16
960697,525,32.87
960712,516,34.16
960727,518,32.55
960742,519,33.84
960757,519,33.84
960772,518,34.48
960787,507,33.52
960802,515,33.84
960817,505,33.84
960832,507,32.23
960847,510,33.52
960862,511,33.52
960877,511,33.52
960892,509,32.23
960907,512,32.55
960922,513,32.87
960937,517,34.16
960952,515,33.84
960967,514,31.90
960982,514,33.84
960997,512,34.16
961012,506,32.87
961027,516,33.84
961042,518,33.19
961057,522,32.55
961072,521,32.87
961087,513,32.55
961102,516,32.23
961117,515,33.84
961132,513,33.84
961147,505,31.90
961162,507,33.84
961177,501,32.23
961192,496,33.19
961207,501,32.23
961222,497,33.84
961237,503,33.84
961252,503,33.84
961267,499,33.84
961282,505,33.84
961297,504,33.19
961312,514,34.16
961327,516,34.16
961342,514,33.84
961357,517,31.58
961372,511,32.87
961387,518,33.84
961402,516,34.16
961417,507,33.84
961432,508,33.19
961447,509,33.84
961462,511,34.16
961477,514,34.16
961492,510,34.48
961507,512,32.23
961522,518,33.19
961537,520,32.55
961552,522,33.52
961567,515,32.55
961582,520,33.84
961597,516,33.84
961612,511,33.19
961627,514,34.16
961642,512,33.84
961657,512,33.52
961672,513,32.55
961687,511,33.84
961702,511,33.84
961717,513,33.52
961732,514,34.16
961747,513,32.23
961762,514,34.16
961777,516,33.84
961792,515,33.84
961807,516,33.84
961822,507,32.55
961837,512,34.16
961852,503,32.23
961867,502,34.16
961882,503,33.19
961897,498,32.23
961912,494,32.55
961927,499,34.16
961942,500,33.84
961957,504,33.52
961972,503,32.55
961987,507,34.16
962002,502,32.23
962017,505,34.48
962032,498,33.84
962047,505,33.84
962062,507,33.84
962077,505,33.84
962092,500,32.87
962107,497,33.19
962122,501,33.52
962137,505,34.48
962152,503,33.84
962167,498,33.84
962182,501,32.87
962197,511,33.84
962212,513,34.16
962227,508,34.48
962242,517,33.52
962257,518,34.16
962272,519,33.52
962287,516,33.84
962302,515,34.16
962317,520,32.87
962332,519,33.84
962347,517,34.16
962362,518,33.84
962377,511,33.84
962392,510,34.16
962407,516,33.84
962422,518,33.52
962437,513,32.87
962452,511,32.23
962467,516,33.84
962482,513,34.16
962497,509,33.84
962512,514,33.84
962527,513,34.16
962542,517,33.52
962557,514,32.55
962572,521,33.84
962587,517,32.87
962602,515,33.52
962617,516,34.16
962632,512,32.87
962647,503,32.87
962662,508,33.84
962677,505,32.87
962692,504,33.52
962707,502,33.52
962722,508,32.23
962737,508,33.52
962752,509,34.16
962767,507,33.52
962782,505,33.52
962797,507,32.87
962812,504,32.23
962827,509,34.16
962842,514,33.84
962857,511,34.16
962872,512,32.87
962887,510,32.55
962902,513,32.55
962917,511,34.16
962932,518,33.84
962947,513,33.84
962962,518,32.23
962977,522,34.16
962992,520,33.52
963007,522,34.16
963022,527,32.55
963037,513,34.48
963052,517,32.55
963067,520,34.16
963082,512,31.90
963097,513,34.16
963112,514,33.52
963127,506,34.16
963142,508,32.87
963157,514,34.16
963172,513,33.84
963188,514,34.16
963203,507,33.52
963218,508,32.55
963233,511,33.84
963248,505,32.87
963263,510,33.19
963279,509,33.84
963294,510,34.16
963309,511,33.84
963324,510,33.84
963339,512,33.84
963354,514,34.16
963369,509,33.84
963384,510,33.84
963400,508,33.84
963415,507,33.84
963431,505,34.16
963446,506,34.16
963461,507,32.87
963477,507,33.84
963492,510,33.84
963508,510,33.84
963524,509,33.19
963539,508,34.16
963555,507,33.52
963570,510,34.16
963586,509,33.84
963602,505,32.87
963617,513,33.19
963633,512,34.16
963649,514,33.84
963665,509,32.87
963680,514,33.52
963696,513,34.16
963712,506,33.52
963728,514,34.16
963744,512,34.16
963759,505,32.87
963775,511,33.84
963791,511,34.16
963806,507,32.23
963822,509,32.55
963837,508,33.52
963853,511,32.87
963869,511,34.16
963885,511,34.48
963901,510,34.16
963917,512,33.84
963933,513,34.16
963949,511,34.16
963964,511,33.84
963980,507,34.16
963996,503,33.84
964012,506,32.55
964027,504,34.16
964043,505,33.84
964058,505,33.84
964074,508,34.16
964090,504,32.55
964105,502,32.55
964120,502,34.16
964135,510,33.84
964151,506,33.84
964166,499,33.52
964182,509,34.80
964198,505,33.52
964213,501,32.87
964229,506,33.84
964244,505,33.84
964260,509,33.52
964275,505,32.87
964290,512,32.55
964305,515,32.23
964321,520,33.84
964337,517,33.84
964352,515,32.55
964368,518,33.84
964383,518,34.16
964398,510,33.84
964413,514,34.16
964428,515,32.87
964443,510,31.90
964458,514,33.84
964473,512,33.19
964489,512,34.16
964504,514,34.16
964519,510,32.55
964534,512,34.16
964549,511,33.84
964564,508,33.84
964579,508,33.84
964594,509,33.84
964609,510,33.52
964624,514,32.87
964640,511,33.52
964655,510,33.84
964670,510,32.55
964685,511,33.84
964700,513,32.55
964715,505,32.23
964730,506,33.84
964745,507,34.48
964760,502,33.84
964775,508,33.52
964790,500,32.23
964805,509,33.84
964820,510,33.84
964835,509,34.16
964850,505,34.16
964865,510,33.84
964880,502,32.87
964895,507,33.84
964910,509,34.16
964925,510,33.52
964940,512,33.52
964955,512,32.55
964970,513,33.52
964985,510,32.23
965000,509,34.16
965015,509,34.16
965030,500,33.19
965045,510,33.52
965060,510,33.84
965075,512,33.84
965090,507,33.84
965105,517,33.84
965120,511,33.19
965135,521,34.16
965150,514,34.16
965165,508,32.55
965180,512,33.84
965195,507,32.55
965210,510,33.84
965225,502,34.16
965240,512,33.52
965255,506,34.48
965270,506,32.55
965285,513,34.16
965300,513,33.52
965315,511,33.84
965330,509,33.84
965345,512,33.84
965360,508,34.48
965375,510,34.16
965390,510,32.55
965405,507,32.55
965420,511,33.52
965435,511,32.23
965450,509,34.16
965465,509,33.52
965480,504,34.16
965495,501,32.55
965510,505,33.19
965525,505,33.52
965540,507,34.16
965555,505,34.16
965570,502,32.55
965585,502,33.84
965600,501,32.55
965615,506,33.52
965630,501,33.52
965645,503,33.52
965660,507,33.52
965675,508,34.48
965690,503,33.84
965705,510,33.84
965720,515,34.16
965735,511,32.87
965750,514,34.16
965765,513,34.16
965780,504,32.55
965795,510,34.16
965810,510,33.84
965825,507,33.84
965840,510,33.84
965855,505,33.19
965870,517,33.84
965885,515,33.84
965900,513,32.55
965916,511,33.52
965931,510,32.23
965946,509,33.52
965961,513,33.84
965976,507,32.55
965991,509,34.16
966007,511,33.19
966022,515,32.55
966037,513,34.16
966052,505,32.87
966067,510,33.84
966082,510,33.19
966098,513,34.48
966113,507,33.84
966128,510,34.16
966143,504,33.84
966158,509,33.52
966173,514,33.84
966188,513,33.52
966203,516,33.84
966219,512,32.23
966235,517,34.48
966250,512,31.90
966265,514,33.19
966280,503,33.19
966296,510,34.16
966311,509,33.84
966327,506,34.16
966343,508,33.84
966359,506,33.84
966375,509,34.80
966391,504,32.55
966407,512,33.52
966422,505,32.23
966438,509,32.23
966453,513,34.16
966469,512,33.52
966485,511,33.84
966500,505,33.19
966516,511,34.16
966531,508,34.16
966547,511,34.16
966563,511,33.84
966579,508,31.90
966595,511,33.84
966611,509,33.84
966626,503,33.19
966642,508,34.16
966658,507,34.16
966674,510,33.84
966690,510,32.55
966706,508,33.84
966721,512,33.52
966737,511,33.84
966752,512,34.16
966768,522,33.19
966784,519,33.84
966799,514,32.87
966815,518,34.16
966831,516,33.84
966846,515,32.87
966862,509,32.55
966877,511,33.84
966892,505,34.16
966907,505,33.84
966923,514,33.52
966938,518,34.16
966954,515,34.16
966970,510,32.23
966985,519,32.87
967001,520,32.87
967016,516,35.45
967032,515,32.55
967048,514,33.84
967063,514,33.84
967079,511,31.90
967094,506,34.48
967109,506,33.19
967124,515,33.84
967140,510,34.16
967156,506,33.84
967171,514,33.52
967187,512,33.84
967202,506,33.84
967217,513,33.84
967232,512,33.84
967247,511,33.19
967262,509,34.16
967277,510,34.48
967292,504,32.23
967308,512,34.16
967323,509,34.16
967338,513,33.84
967353,514,34.48
967368,514,33.84
967383,511,32.23
967398,505,33.52
967413,512,32.23
967428,503,32.87
967443,511,34.48
967458,514,33.84
967473,517,34.16
967488,519,34.16
967503,517,32.55
967518,522,34.16
967533,524,34.16
967548,513,33.84
967563,518,33.19
967578,515,33.84
967593,516,33.84
967608,516,32.55
967623,513,34.16
967638,518,33.84
967653,517,34.16
967668,516,33.84
967683,515,34.16
967698,510,32.23
967713,507,32.87
967728,515,33.84
967743,513,33.84
967758,507,34.16
967773,511,32.55
967788,516,34.16
967803,517,33.52
967818,512,32.55
967833,510,33.52
967848,515,34.16
967863,514,34.16
967878,513,34.48
967893,503,32.87
967908,510,33.84
967923,511,34.16
967938,510,33.84
967953,511,34.16
967968,515,33.84
967983,508,32.55
967998,508,33.19
968013,510,34.80
968028,510,33.84
968043,505,33.84
968058,506,32.55
968073,503,32.23
968088,509,32.87
968103,511,33.84
968118,513,33.84
968133,511,33.84
968148,503,33.84
968163,508,32.87
968178,503,32.55
968193,512,34.16
968208,510,33.84
968223,515,33.52
968238,515,33.84
968253,521,33.84
968268,517,32.55
968283,516,32.55
968298,522,33.52
968313,520,33.84
968328,521,33.52
968343,518,32.55
968358,514,33.84
968373,512,32.23
968388,515,34.16
968403,515,33.52
968418,515,33.52
968433,514,34.16
968448,512,32.55
968463,507,32.55
968478,513,33.84
968493,508,32.55
968508,511,34.48
968523,512,33.84
968538,519,33.19
968553,513,34.16
968568,517,34.16
968584,508,33.84
968599,514,34.16
968614,514,33.84
968629,513,33.84
968644,512,34.48
968659,509,33.84
968674,509,34.16
968689,508,34.16
968704,508,34.16
968719,510,34.16
968735,511,32.55
968750,513,32.55
968765,503,32.55
968780,512,33.19
968795,508,33.84
968810,507,33.84
968826,507,33.84
968841,510,32.87
968856,512,34.48
968871,507,33.52
968887,506,34.16
968903,510,33.84
968918,512,34.16
968934,512,33.52
968949,514,34.16
968965,509,32.55
968980,517,33.52
968995,520,34.16
969011,516,32.55
969027,521,33.52
969042,522,33.84
969057,524,34.48
969073,519,34.16
969089,521,33.52
969104,520,33.52
969120,512,32.55
969135,514,32.23
969151,518,34.16
969167,521,34.48
969182,516,33.84
969198,509,32.55
969213,513,32.55
969229,514,34.16
969245,513,33.84
969260,507,32.55
969276,509,32.87
969292,514,34.16
969307,507,32.87
969323,514,34.16
969339,515,33.84
969354,510,33.52
969370,514,33.84
969385,509,32.55
969400,514,34.48
969415,515,33.84
969431,506,33.19
969447,514,33.84
969463,514,33.84
969479,510,33.52
969495,508,34.16
969510,510,33.84
969525,503,31.90
969540,510,33.52
969556,503,33.52
969571,512,33.84
969587,513,34.80
969602,514,33.84
969618,513,33.84
969633,515,34.16
969648,513,34.48
969663,515,33.84
969678,511,33.84
969693,504,32.55
969708,511,32.87
969723,512,33.84
969738,514,32.55
969753,517,32.55
969769,512,33.19
969785,521,32.23
969800,526,33.84
969816,523,31.90
969831,525,33.84
969846,522,32.87
969861,520,33.52
969877,516,34.48
969893,511,31.58
969908,515,34.16
969924,504,33.19
969939,513,33.84
969954,513,34.16
969969,504,33.84
969984,515,34.48
969999,516,33.52
970015,516,33.52
970030,511,32.55
970045,513,33.19
970060,515,33.52
970075,509,34.16
970090,514,32.55
970105,516,34.16
970120,514,33.84
970135,517,33.84
970150,516,33.84
970165,511,32.55
970180,513,33.84
970195,514,32.87
970210,512,34.16
970225,509,32.87
970240,511,34.16
970255,508,33.84
970270,509,33.84
970285,511,33.52
970300,512,34.16
970315,516,33.84
970330,508,32.23
970345,511,33.19
970360,506,32.55
970375,509,33.84
970390,504,33.84
970405,508,32.23
970420,512,34.16
970435,512,33.84
970450,512,34.16
970465,516,33.52
970480,514,33.19
970495,511,33.84
970510,511,32.87
970525,513,33.84
970540,512,33.84
970555,521,32.55
970570,522,34.48
970585,523,32.55
970600,523,33.84
970615,524,31.90
970630,523,34.48
970645,522,34.16
970660,510,32.55
970675,514,34.16
970690,514,34.16
970705,504,32.55
970720,514,34.16
970735,510,34.16
970750,511,33.52
970765,514,34.16
970780,512,33.84
970795,506,32.55
970810,513,34.16
970825,505,32.55
970840,514,33.19
970855,508,33.19
970870,516,33.84
970885,509,34.16
970900,517,34.16
970915,517,33.84
970930,507,32.87
970945,513,33.52
970960,509,33.84
970975,503,32.55
970990,510,34.16
971005,510,34.16
971020,505,33.19
971035,510,34.16
971050,514,33.84
971065,514,34.16
971080,510,31.58
971095,509,32.55
971110,509,33.84
971125,508,33.52
971140,511,33.19
971155,503,33.84
971170,508,34.16
971185,505,32.55
971200,511,33.84
971215,513,33.84
971230,507,32.23
971245,514,34.16
971260,506,32.55
971275,516,34.16
971290,515,32.55
971305,520,34.16
971320,520,32.23
971335,525,33.84
971350,525,32.87
971365,521,32.55
971380,519,32.23
971395,520,33.52
971410,517,34.16
971425,509,32.55
971440,514,34.16
971455,510,33.52
971470,512,33.84
971485,515,33.52
971500,515,34.16
971515,508,33.19
971530,514,33.84
971545,513,34.16
971560,507,33.84
971576,515,34.16
971591,515,33.19
971606,514,34.16
971621,517,33.52
971637,514,34.16
971653,508,32.23
971668,508,32.55
971683,515,32.87
971698,512,34.48
971714,513,32.87
971729,513,34.16
971745,511,34.16
971760,507,33.84
971775,507,34.16
971791,509,33.52
971806,510,33.84
971822,502,32.87
971837,502,32.23
971853,513,32.87
971869,513,33.84
971884,510,32.23
971900,513,32.23
971916,510,32.23
971931,512,34.16
971947,508,32.87
971962,511,33.84
971978,505,33.84
971994,512,32.55
972010,505,33.84
972025,506,33.52
972040,515,34.16
972056,510,33.52
972072,518,34.16
972088,522,33.84
972104,520,32.87
972120,525,33.84
972135,527,33.84
972151,519,32.87
972167,521,33.84
972183,520,33.84
972199,516,33.84
972215,506,32.87
972230,514,33.84
972246,513,33.19
972261,513,33.84
972277,512,34.16
972293,511,34.16
972308,510,32.23
972323,512,33.84
972338,506,33.52
972354,513,33.84
972370,516,33.52
972385,507,33.84
972401,517,32.55
972416,507,33.84
972432,516,33.84
972448,508,32.87
972463,513,34.16
972479,514,33.19
972494,511,33.84
972510,509,33.84
972526,502,32.87
972541,501,33.84
972557,507,33.52
972572,504,32.55
972587,510,34.16
972602,506,33.84
972618,505,31.90
972634,509,32.87
972649,509,32.87
972664,510,34.48
972679,504,32.55
972695,509,33.52
972710,503,32.55
972726,508,33.84
972742,506,33.84
972757,507,33.52
972772,508,34.16
972787,508,34.16
972802,509,32.55
972817,503,33.84
972832,506,33.52
972847,516,34.16
972862,516,34.16
972877,519,33.84
972892,517,33.84
972907,513,32.87
972922,509,32.87
972937,517,34.16
972952,512,34.16
972967,517,33.84
972982,514,32.55
972997,510,33.52
973012,506,33.19
973027,507,33.19
973042,507,34.16
973057,507,32.55
973072,506,31.90
973087,508,33.52
973102,512,33.19
973117,512,33.19
973132,509,32.55
973147,514,34.16
973162,514,33.84
973177,509,32.55
973192,512,34.16
973207,503,33.84
973222,507,32.23
973237,510,34.16
973252,511,34.48
973267,508,32.55
973282,513,33.84
973297,512,33.84
973312,504,32.87
973327,510,33.84
973342,503,33.84
973357,503,33.84
973372,510,33.84
973387,512,34.16
973402,514,33.84
973417,516,33.84
973432,510,33.84
973447,508,32.23
973462,512,32.55
973477,509,32.55
973492,511,33.84
973507,506,34.16
973522,509,33.84
973537,508,34.16
973552,512,33.84
973567,511,33.52
973582,514,33.84
973597,512,32.55
973612,515,33.19
973627,509,34.16
973642,508,33.84
973657,507,32.55
973672,510,34.16
973687,512,33.52
973702,518,32.87
973717,516,34.16
973732,522,33.52
973747,523,34.16
973762,518,32.23
973777,523,33.84
973792,517,33.52
973807,517,34.16
973822,516,33.84
973837,516,34.16
973852,514,34.16
973867,512,33.84
973882,515,33.84
973897,512,33.84
973912,507,33.84
973927,511,33.52
973942,513,33.84
973957,512,33.84
973972,512,33.84
973987,513,33.52
974002,517,33.84
974017,517,33.84
974032,517,32.55
974047,518,33.84
974062,513,33.84
974077,516,33.84
974092,515,33.84
974107,513,33.84
974122,511,33.84
974137,507,32.55
974152,509,32.55
974167,514,33.84
974182,514,33.84
974197,511,33.84
974212,513,33.84
974227,515,32.55
974242,507,33.84
974257,511,34.16
974272,507,32.87
974287,503,32.87
974302,511,33.52
974317,507,31.90
974332,506,32.87
974347,515,34.16
974362,513,34.16
974377,509,32.87
974392,508,34.16
974407,509,33.84
974422,505,32.87
974437,512,33.52
974452,510,33.84
974467,514,33.84
974482,508,32.23
974497,519,34.16
974512,517,33.52
974527,521,34.16
974542,524,34.16
974557,524,33.84
974572,524,33.84
974587,518,32.87
974602,521,34.16
974617,520,33.52
974632,510,32.55
974647,512,33.84
974662,510,34.16
974677,507,32.87
974692,502,32.55
974707,492,33.19
974722,497,32.55
974737,503,34.16
974752,508,32.87
974767,511,33.84
974782,510,34.16
974797,509,32.87
974812,516,34.16
974827,518,33.52
974842,509,32.55
974857,514,33.84
974872,515,34.16
974887,517,34.16
974902,513,32.23
974917,518,34.16
974932,520,32.55
974947,515,32.87
974962,516,34.16
974977,512,34.16
974992,506,33.84
975007,511,33.84
975022,510,34.16
975037,503,33.84
975052,506,33.52
975067,510,33.19
975082,508,33.84
975097,501,32.55
975112,505,32.55
975127,505,34.48
975142,498,34.16
975157,499,32.23
975172,500,32.87
975187,503,33.84
975202,503,32.55
975217,503,34.16
975232,506,33.84
975247,510,33.84
975262,504,33.84
975277,506,33.19
975292,515,33.84
975307,520,33.84
975322,522,33.84
975337,516,32.87
975352,524,33.84
975367,529,33.84
975382,520,33.84
975397,515,34.48
975412,523,33.84
975427,522,32.87
975442,516,34.16
975457,512,34.16
975472,504,33.84
975487,501,33.52
975502,507,33.84
975517,505,32.55
975532,501,33.19
975547,510,33.84
975562,512,34.16
975577,509,34.48
975592,502,32.87
975607,507,33.84
975622,509,34.16
975637,508,33.52
975652,508,34.16
975667,505,32.55
975682,510,34.16
975697,510,33.84
975712,508,33.84
975727,509,34.16
975742,504,33.84
975757,503,33.84
975772,496,32.55
975787,502,33.84
975802,501,33.84
975817,498,33.52
975832,503,32.23
975847,506,32.23
975862,509,33.19
975877,515,33.84
975892,518,34.16
975907,518,33.84
975922,515,32.55
975937,518,33.84
975952,518,34.48
975967,518,33.19
975982,517,34.16
975997,515,33.84
976012,510,33.52
976027,510,33.84
976042,513,33.84
976057,513,33.52
976072,509,33.84
976087,505,32.55
976102,516,34.16
976117,517,33.52
976132,518,33.52
976147,514,32.55
976162,517,32.87
976177,514,33.84
976192,509,34.16
976207,506,34.16
976222,501,32.23
976237,501,32.23
976252,498,32.55
976267,506,33.19
976282,506,33.52
976297,508,34.16
976312,505,32.23
976327,513,34.16
976342,513,33.84
976357,510,32.23
976372,520,33.84
976387,515,33.84
976402,517,32.87
976417,515,34.16
976432,516,33.84
976447,517,32.87
976462,516,34.48
976477,512,33.84
976492,513,32.87
976507,509,33.84
976522,509,33.19
976537,509,34.16
976552,512,34.16
976567,511,33.84
976582,511,34.48
976597,514,34.48
976612,513,33.84
976627,516,34.16
976642,514,33.84
976657,505,34.16
976672,505,33.84
976687,511,34.16
976702,510,34.16
976717,508,34.16
976732,510,33.52
976747,512,33.52
976762,510,34.16
976777,510,34.16
976792,510,34.16
976807,512,33.84
976822,512,34.16
976837,518,34.16
976852,524,33.19
976867,522,33.84
976882,528,34.16
976897,526,33.84
976912,519,32.23
976927,520,33.84
976942,513,32.55
976957,512,34.16
976972,506,34.16
976987,501,33.84
977002,498,32.23
977017,502,32.55
977032,505,34.16
977047,499,32.55
977062,500,33.84
977077,507,33.84
977092,506,34.16
977107,499,32.23
977122,500,32.55
977137,502,33.84
977152,497,33.84
977167,493,32.23
977182,491,33.19
977197,498,33.52
977212,500,32.55
977227,505,34.16
977242,509,34.16
977257,512,33.84
977272,513,33.84
977287,517,34.16
977302,517,34.16
977317,518,34.16
977332,518,33.84
977347,520,33.52
977362,516,34.16
977377,510,34.16
977392,512,33.84
977407,507,34.48
977422,507,32.87
977437,505,32.87
977452,506,34.48
977467,504,34.16
977482,506,34.16
977497,508,34.16
977512,512,33.84
977527,512,32.55
977542,512,33.52
977557,514,32.55
977572,520,33.52
977587,514,32.87
977602,522,34.16
977617,521,34.16
977632,519,33.84
977647,517,34.16
977662,515,33.84
977677,515,33.84
977692,516,33.84
977707,502,33.84
977722,503,32.23
977737,507,34.16
977752,508,34.16
977767,510,33.52
977782,510,34.16
977797,506,32.87
977812,510,33.52
977827,510,32.87
977842,507,34.16
977857,512,32.23
977872,510,34.16
977887,505,33.84
977902,509,34.16
977917,507,31.90
977932,505,33.84
977947,511,33.84
977962,511,33.19
977977,514,33.84
977992,514,34.16
978007,514,33.84
978022,512,33.84
978037,514,34.16
978052,503,34.16
978067,514,32.87
978082,507,32.55
978097,513,33.52
978112,509,33.84
978127,510,32.55
978142,513,33.52
978157,507,33.84
978172,510,33.84
978187,500,32.55
978202,506,34.16
978217,510,34.16
978232,513,33.84
978247,516,34.16
978262,515,33.84
978277,515,33.52
978292,518,33.84
978307,523,32.55
978322,521,34.16
978337,520,33.52
978352,521,34.16
978367,519,33.84
978382,513,33.52
978397,520,34.16
978412,518,33.84
978427,514,33.84
978442,510,33.19
978457,504,34.16
978472,510,33.84
978487,511,33.84
978502,512,34.48
978517,512,32.55
978532,507,33.84
978547,512,33.19
978562,516,34.48
978577,510,31.90
978592,516,32.55
978607,510,33.19
978622,506,34.16
978637,512,33.84
978652,507,32.87
978667,503,33.52
978682,509,33.52
978697,510,33.84
978712,511,32.23
978727,512,34.48
978742,503,34.16
978757,500,32.87
978772,508,34.16
978787,509,34.16
978802,501,33.52
978817,510,32.87
978832,511,32.55
978847,508,32.87
978862,513,32.55
978877,514,32.23
978892,516,33.84
978907,515,33.84
978922,513,34.48
978937,511,33.84
978952,510,34.16
978967,518,34.16
978982,511,32.55
978997,519,34.16
979012,515,33.19
979027,512,32.23
979042,512,33.84
979057,514,33.52
979072,510,34.16
979087,510,32.87
979102,511,32.55
979117,511,33.84
979132,512,34.48
979147,505,34.16
979162,507,34.16
979177,514,33.19
979192,510,34.16
979207,510,34.16
979222,512,33.84
979237,512,34.16
979252,514,34.16
979267,506,33.84
979282,514,34.16
979297,513,33.84
979312,514,32.23
979327,510,34.16
979342,509,34.48
979357,512,33.52
979372,509,33.84
979387,508,33.84
979402,506,33.84
979417,508,32.87
979432,507,34.48
979447,513,33.84
979462,513,34.16
979477,513,32.55
979492,511,34.16
979507,511,34.16
979522,511,33.52
979537,505,33.84
979552,512,33.19
979567,513,31.90
979582,514,33.84
979597,521,33.52
979612,524,34.16
979627,526,34.48
979642,526,34.16
979657,523,32.23
979672,525,32.55
979687,515,33.19
979702,521,32.55
979717,517,33.19
979732,520,33.84
979747,514,33.84
979762,508,33.19
979777,514,34.16
979792,511,34.16
979807,500,33.19
979822,506,32.55
979837,504,33.84
979852,506,33.84
979867,507,34.16
979882,510,33.84
979897,511,34.16
979912,517,34.16
979927,518,33.84
979942,516,33.84
979957,515,34.16
979972,510,32.87
979987,514,32.55
980002,507,32.23
980017,513,34.16
980032,506,33.84
980047,515,33.52
980062,517,33.19
980077,515,34.16
980092,517,33.84
980107,514,33.84
980122,516,33.52
980137,511,33.52
980152,513,32.55
980167,502,32.55
980182,511,33.19
980197,505,31.90
980212,508,34.16
980227,510,34.16
980242,503,32.87
980257,510,34.16
980272,505,33.52
980287,505,34.16
980302,500,32.87
980317,509,33.84
980332,505,33.84
980347,514,33.84
980362,515,32.55
980377,525,34.48
980392,525,33.84
980407,518,32.55
980422,520,34.16
980437,524,34.16
980452,519,34.48
980467,516,34.16
980482,519,34.48
980497,509,32.87
980512,512,33.84
980527,508,33.19
980542,508,33.84
980557,505,33.84
980572,503,34.16
980587,502,33.52
980602,503,34.16
980617,499,31.90
980632,508,33.84
980647,508,33.52
980662,503,32.55
980677,516,33.19
980692,518,32.87
980707,514,33.19
980722,515,34.16
980737,511,33.52
980752,512,34.16
980767,515,33.19
980782,513,33.19
980797,510,32.23
980812,513,34.16
980827,513,33.84
980842,506,33.84
980857,509,33.84
980872,505,34.48
980887,505,34.16
980902,502,34.16
980917,502,33.84
980932,507,33.84
980947,498,32.55
980962,502,34.16
980977,505,33.84
980992,497,33.19
981007,507,33.52
981022,505,34.16
981037,503,32.23
981052,503,32.55
981067,503,32.55
981082,506,33.84
981097,507,33.52
981112,500,32.87
981127,508,34.48
981142,507,34.16
981157,509,34.16
981172,511,33.52
981187,507,32.87
981202,510,32.55
981217,516,33.52
981232,517,33.84
981247,519,33.84
981262,522,34.16
981277,521,33.84
981292,519,33.84
981307,518,34.16
981322,512,32.87
981337,513,32.87
981352,513,33.52
981367,512,34.16
981382,512,33.52
981397,513,34.16
981412,509,33.84
981427,515,33.52
981442,517,34.48
981457,516,34.16
981472,518,33.52
981487,522,33.19
981502,527,34.16
981517,533,34.16
981532,536,32.87
981547,535,33.52
981562,533,33.84
981577,530,33.84
981592,525,33.52
981607,519,34.16
981622,512,33.52
981637,506,34.16
981652,501,33.52
981667,496,33.84
981682,496,34.16
981697,498,34.16
981712,498,34.16
981727,494,32.23
981742,495,32.55
981757,497,32.23
981772,503,33.52
981787,502,32.87
981802,506,33.52
981817,507,33.84
981832,508,34.80
981847,511,33.84
981862,511,34.16
981877,510,32.23
981892,505,32.87
981907,503,32.23
981922,506,33.84
981937,507,33.84
981952,501,33.19
981967,502,34.16
981982,510,33.52
981997,513,33.84
982012,516,34.48
982027,508,33.19
982042,513,33.84
982057,513,33.84
982072,512,33.84
982087,506,33.84
982102,502,33.84
982117,502,33.19
982132,493,32.87
982147,501,34.16
982162,501,34.16
982177,493,33.84
982192,499,33.84
982207,502,33.52
982222,505,34.80
982237,507,32.87
982252,504,34.16
982267,500,32.87
982282,507,34.16
982297,503,32.23
982312,509,33.52
982327,509,32.23
982342,510,34.16
982357,509,33.19
