=~=~=~=~=~=~=~=~=~=~=~= PuTTY log 2023.06.05 19:52:31 =~=~=~=~=~=~=~=~=~=~=~=
107715,541,32.55
107730,546,33.52
107745,542,33.84
107760,550,33.84
107775,540,33.84
107790,542,32.87
107805,533,33.52
107820,523,34.16
107835,515,33.84
107850,515,32.55
107865,510,32.23
107880,505,34.16
107895,504,32.87
107910,493,33.19
107925,503,33.52
107940,497,34.16
107955,508,32.87
107970,499,33.84
107985,502,33.84
108000,509,33.52
108015,501,33.84
108030,509,33.52
108045,509,33.19
108060,506,34.16
108075,507,33.84
108090,508,33.19
108105,506,32.87
108120,508,32.23
108135,500,33.52
108150,500,34.16
108165,500,33.84
108180,504,32.87
108195,501,34.16
108210,499,33.84
108225,502,34.16
108240,502,33.84
108255,497,34.16
108270,502,34.16
108285,504,34.16
108300,513,32.55
108315,521,32.87
108330,529,32.23
108345,533,33.84
108360,547,33.84
108375,550,32.87
108390,557,32.87
108405,555,32.55
108420,553,34.48
108435,549,32.55
108450,540,34.48
108465,527,33.84
108480,517,33.84
108495,514,34.16
108510,511,32.55
108525,505,33.19
108540,497,33.84
108555,490,33.52
108570,497,33.84
108585,492,33.52
108600,499,33.19
108615,504,33.84
108630,495,34.16
108645,505,34.16
108660,506,34.48
108675,509,34.48
108690,510,32.87
108705,511,34.16
108720,513,32.55
108735,509,34.16
108750,507,34.16
108765,506,32.87
108780,505,34.80
108795,506,34.16
108810,502,33.84
108825,504,33.84
108840,503,33.19
108855,504,33.19
108870,496,34.16
108885,506,32.55
108900,503,33.84
108915,497,34.48
108930,505,33.84
108945,510,32.87
108960,518,32.23
108975,527,33.84
108990,530,34.16
109005,538,34.48
109020,549,33.52
109035,547,33.52
109050,548,33.52
109065,539,34.16
109080,539,32.23
109095,533,34.16
109110,526,33.84
109125,513,33.52
109140,519,32.55
109155,514,33.19
109170,508,33.84
109185,500,34.16
109200,499,34.16
109215,496,32.55
109230,498,32.23
109245,492,33.84
109260,492,33.84
109275,502,32.23
109290,506,33.84
109305,506,32.55
109320,508,34.48
109335,508,33.84
109350,505,34.48
109365,509,32.87
109380,504,33.52
109395,504,32.55
109410,500,33.84
109425,503,31.90
109440,495,34.16
109455,493,34.16
109470,492,34.16
109485,498,33.52
109500,496,32.87
109515,491,34.16
109530,493,33.84
109545,497,34.48
109560,503,33.52
109575,505,33.84
109590,513,34.48
109605,519,34.16
109620,528,32.87
109635,529,33.84
109650,539,34.16
109665,541,33.52
109680,543,32.87
109695,533,33.84
109710,537,32.87
109725,530,34.16
109740,523,34.48
109755,517,33.84
109770,514,32.55
109785,509,34.16
109800,500,34.16
109815,500,32.55
109830,498,33.19
109845,492,33.84
109860,498,33.52
109875,500,33.84
109890,500,33.84
109905,514,33.84
109920,520,32.55
109935,519,34.16
109950,520,32.23
109965,516,32.23
109980,501,33.84
109995,497,34.80
110010,498,33.84
110025,501,32.55
110040,493,33.84
110055,493,34.16
110070,504,34.16
110085,506,32.55
110100,506,33.84
110115,505,32.23
110130,498,34.16
110145,500,33.52
110160,497,33.52
110175,496,33.84
110190,500,32.55
110205,504,34.48
110220,509,33.52
110235,517,34.48
110250,521,34.48
110265,535,34.16
110280,546,32.55
110295,546,33.19
110310,547,33.52
110325,546,32.87
110340,535,34.16
110355,535,34.16
110370,530,33.52
110385,524,35.45
110400,515,34.16
110415,520,32.87
110430,518,33.84
110445,516,32.55
110460,511,34.16
110475,509,32.87
110490,500,34.16
110505,502,33.84
110520,500,34.48
110535,500,34.48
110550,502,33.52
110565,502,34.16
110580,504,32.87
110595,500,33.84
110610,506,32.87
110625,508,33.19
110640,507,32.23
110655,508,32.87
110670,495,33.84
110685,499,33.84
110700,503,34.16
110715,502,30.62
110730,504,32.55
110745,499,32.87
110760,508,33.84
110775,503,32.23
110790,507,33.19
110805,506,33.52
110820,504,33.52
110835,512,32.87
110850,509,32.87
110865,509,32.55
110880,506,34.16
110895,515,34.16
110910,528,33.84
110925,538,32.87
110940,540,36.42
110955,537,32.87
110970,544,34.16
110985,544,32.87
111000,537,33.84
111015,532,33.52
111030,519,34.48
111045,518,35.45
111060,509,34.16
111075,512,33.19
111090,501,34.16
111105,501,34.80
111120,493,34.48
111135,494,32.87
111150,492,33.84
111165,497,33.19
111180,500,32.87
111195,495,32.23
111210,496,33.84
111225,505,33.84
111240,507,33.52
111255,500,34.16
111270,505,34.16
111285,506,33.84
111300,504,33.84
111315,499,33.52
111330,503,34.16
111345,496,33.19
111360,494,33.84
111375,490,32.55
111390,490,32.23
111405,498,34.16
111420,496,34.16
111435,494,33.84
111450,496,34.16
111465,495,33.84
111480,506,32.55
111495,504,33.84
111510,519,33.84
111525,531,32.87
111540,533,32.87
111555,547,34.16
111570,551,34.16
111585,545,32.87
111600,548,34.16
111615,543,33.19
111630,538,32.55
111645,531,34.48
111660,527,33.52
111675,520,32.87
111690,513,34.16
111705,501,34.16
111720,498,34.16
111735,506,34.16
111750,506,32.87
111765,497,32.87
111780,502,33.84
111795,498,33.52
111810,504,34.48
111825,504,33.84
111840,509,33.84
111855,510,33.19
111870,506,33.84
111885,510,32.87
111900,511,34.16
111915,513,33.19
111930,513,32.87
111945,505,33.84
111960,510,33.52
111975,506,34.16
111990,508,34.16
112005,501,33.52
112020,507,33.19
112035,499,33.52
112050,498,33.52
112065,503,34.16
112080,501,34.16
112095,495,33.84
112110,501,34.16
112125,506,34.16
112140,521,33.19
112155,524,33.84
112170,534,34.48
112185,545,33.84
112200,547,34.16
112215,554,34.16
112230,555,32.87
112245,549,34.16
112260,544,32.55
112275,541,32.55
112290,532,34.48
112305,527,34.16
112320,515,34.16
112335,514,33.84
112350,509,33.19
112365,508,32.23
112380,505,34.16
112395,505,32.87
112410,506,33.84
112425,506,33.19
112440,510,33.84
112455,510,33.84
112470,513,32.55
112485,516,33.52
112500,514,32.55
112515,507,33.84
112530,507,34.80
112545,507,31.90
112560,502,34.48
112575,510,32.87
112590,505,33.84
112605,506,34.16
112620,496,33.84
112635,504,33.84
112650,500,33.84
112665,504,34.16
112680,502,34.16
112695,500,33.84
112710,500,34.16
112725,501,34.16
112740,507,32.87
112755,507,33.84
112770,511,34.16
112785,518,33.84
112800,525,33.84
112815,538,34.16
112830,547,33.19
112845,548,32.23
112860,548,34.16
112875,547,33.84
112890,540,33.52
112905,535,32.87
112920,529,33.52
112935,516,34.16
112950,517,32.55
112965,512,32.87
112980,499,33.84
112995,499,33.84
113010,500,34.16
113025,501,33.52
113040,493,33.84
113055,503,33.84
113070,504,32.55
113085,500,34.16
113100,506,34.16
113115,505,33.84
113130,505,33.84
113145,509,32.87
113160,506,32.87
113175,503,34.16
113190,503,33.52
113205,495,34.48
113220,498,33.84
113235,500,34.48
113250,499,34.16
113265,491,33.84
113280,495,34.80
113295,499,32.87
113310,496,34.16
113325,497,32.55
113340,497,32.87
113355,498,34.16
113370,504,32.87
113385,514,33.84
113400,521,34.16
113415,532,32.23
113430,540,32.55
113445,544,34.48
113460,548,33.52
113475,548,34.16
113490,541,34.16
113505,538,32.87
113520,531,32.55
113535,526,33.52
113550,510,34.16
113565,507,34.16
113580,504,33.52
113595,498,34.48
113610,497,32.55
113625,493,34.48
113640,495,34.16
113655,498,34.16
113670,497,34.16
113685,502,32.55
113700,498,34.48
113715,506,32.87
113730,501,33.84
113745,501,34.16
113760,499,34.16
113775,503,33.84
113790,495,33.52
113805,498,34.16
113820,503,33.52
113835,499,34.16
113850,499,32.55
113865,502,34.16
113880,498,32.55
113895,494,34.16
113910,500,34.16
113925,498,33.84
113940,498,34.16
113955,494,33.84
113970,505,33.52
113985,512,33.84
114000,513,34.16
114015,533,33.84
114030,529,33.84
114045,544,32.87
114060,546,34.48
114075,554,32.55
114090,553,33.19
114105,550,33.52
114120,547,33.19
114135,542,33.84
114150,533,33.52
114165,523,32.55
114180,512,33.19
114195,515,32.23
114210,512,32.55
114225,502,33.84
114240,504,33.19
114255,493,33.84
114270,503,32.55
114285,505,33.19
114300,507,33.52
114315,500,34.16
114330,507,34.16
114345,510,33.84
114360,509,32.55
114375,508,34.16
114390,507,34.16
114405,515,33.19
114420,511,32.87
114435,511,32.55
114450,511,33.84
114465,506,33.84
114480,508,34.48
114495,506,32.87
114510,508,32.55
114525,496,33.84
114540,508,33.84
114555,503,33.19
114570,496,33.84
114585,506,33.84
114600,512,34.48
114615,524,33.19
114630,524,34.16
114645,537,34.16
114660,540,33.84
114675,550,34.48
114690,555,34.16
114705,553,32.87
114720,552,34.16
114735,547,32.87
114750,532,33.84
114765,531,32.87
114780,521,34.16
114795,520,33.52
114810,508,33.52
114825,512,32.87
114840,506,34.16
114855,503,34.16
114870,505,33.52
114885,501,33.84
114900,498,34.16
114915,499,34.48
114930,508,32.87
114945,506,34.16
114960,510,33.19
114975,508,34.48
114990,510,32.87
115005,509,34.16
115020,503,33.52
115035,508,32.87
115050,504,33.84
115065,507,34.16
115080,499,34.16
115095,507,32.23
115110,505,32.87
115125,503,33.84
115140,499,34.48
115155,505,33.19
115170,504,33.19
115185,501,34.16
115200,497,34.16
115215,503,33.84
115230,506,34.16
115245,519,34.16
115261,526,32.23
115276,528,34.16
115291,545,33.84
115306,550,33.52
115321,552,32.87
115336,543,33.84
115352,546,32.55
115367,537,34.16
115382,532,32.55
115397,527,33.84
115412,521,33.52
115427,514,32.55
115442,508,32.87
115457,503,32.55
115473,498,32.55
115488,490,33.52
115503,487,34.16
115518,496,34.16
115533,491,34.16
115548,501,34.16
115564,496,33.84
115580,502,33.84
115595,506,33.84
115611,498,33.84
115626,506,34.16
115642,504,34.16
115658,506,33.84
115673,498,34.16
115689,502,32.87
115705,501,34.16
115721,500,32.87
115737,496,34.16
115753,499,32.55
115768,488,33.84
115784,489,33.84
115800,497,33.84
115815,493,34.16
115831,486,33.84
115847,495,33.84
115863,508,34.16
115879,517,34.16
115895,526,33.84
115910,537,34.16
115926,544,33.52
115942,552,33.84
115958,552,34.48
115974,549,34.16
115990,542,34.16
116006,537,32.55
116022,523,34.16
116038,516,33.84
116054,513,34.16
116070,501,33.52
116086,503,33.84
116102,501,32.55
116118,487,33.84
116134,490,34.16
116150,492,33.84
116165,500,32.23
116181,502,32.55
116197,501,34.16
116213,505,32.87
116229,507,32.87
116245,507,35.45
116260,506,32.23
116276,499,34.16
116292,506,32.23
116308,503,34.16
116324,502,33.84
116340,499,34.16
116355,505,33.19
116371,503,33.84
116387,502,33.84
116402,495,33.84
116418,505,33.52
116433,495,33.84
116449,502,32.55
116465,499,33.52
116480,495,34.48
116496,512,32.23
116511,512,34.16
116527,530,32.87
116543,536,33.84
116558,541,34.16
116574,552,32.55
116589,555,33.52
116605,546,34.16
116621,546,33.52
116636,541,34.48
116652,538,32.87
116667,527,33.84
116683,525,32.87
116699,517,34.16
116714,503,33.84
116730,504,32.55
116745,494,34.48
116760,496,33.84
116775,499,33.84
116790,490,34.16
116805,499,32.87
116821,503,33.19
116836,506,34.16
116851,506,33.19
116866,508,33.19
116881,511,34.16
116896,510,32.87
116911,511,34.16
116926,510,33.84
116941,506,34.16
116956,503,33.52
116971,501,34.16
116986,505,33.84
117002,500,34.16
117017,503,33.52
117032,500,32.87
117047,501,34.48
117062,495,33.84
117077,501,33.84
117092,505,32.55
117107,501,33.84
117122,507,32.55
117137,504,33.84
117152,513,32.87
117167,516,34.16
117182,525,33.84
117197,532,33.84
117212,537,33.19
117227,544,33.84
117242,553,32.23
117257,550,33.84
117272,550,32.23
117287,544,34.16
117302,540,32.55
117317,534,33.84
117332,528,33.19
117347,521,32.55
117362,507,33.19
117377,510,32.87
117392,501,34.16
117407,504,32.55
117422,500,33.52
117437,494,34.48
117452,498,34.16
117467,501,32.23
117482,506,32.55
117497,497,34.16
117512,508,33.19
117527,497,34.16
117542,509,34.16
117557,499,34.16
117572,508,32.55
117587,508,33.84
117602,507,32.87
117617,505,34.16
117632,497,33.84
117647,494,33.84
117662,494,31.58
117677,500,32.55
117692,500,32.87
117707,500,32.23
117722,495,33.84
117737,496,34.16
117752,496,32.55
117767,492,33.84
117783,498,33.19
117798,502,32.55
117813,500,34.48
117828,519,34.16
117843,521,34.16
117858,527,34.16
117874,542,32.87
117890,545,32.23
117905,547,32.87
117921,544,34.80
117936,535,34.16
117951,533,33.19
117966,525,34.16
117982,521,32.55
117998,514,32.23
118013,502,34.16
118029,501,32.87
118044,496,33.84
118060,488,33.84
118076,493,31.90
118091,490,33.84
118107,497,34.16
118123,499,32.55
118138,502,33.84
118154,503,33.84
118169,501,34.16
118185,507,32.87
118201,505,34.16
118216,496,34.16
118232,501,34.48
118248,495,34.16
118264,502,33.84
118280,498,32.55
118296,499,34.16
118311,502,33.52
118327,502,33.19
118343,500,34.16
118359,498,34.16
118375,497,34.16
118391,501,32.55
118407,496,34.80
118423,502,33.84
118439,507,31.90
118455,504,33.84
118471,519,34.16
118487,530,34.16
118503,541,34.48
118519,546,34.16
118535,544,34.48
118551,553,32.55
118567,549,33.84
118583,547,32.87
118599,528,33.84
118615,528,33.52
118631,522,33.19
118647,514,33.52
118663,509,33.84
118678,508,32.55
118694,508,32.55
118710,499,33.52
118726,496,33.52
118742,503,34.48
118758,498,33.84
118773,503,33.84
118789,509,34.16
118804,506,32.23
118820,507,32.87
118836,507,33.84
118851,510,32.87
118867,501,34.16
118882,502,33.84
118898,505,32.55
118914,505,34.48
118929,503,33.19
118945,500,34.16
118960,502,34.16
118976,504,32.87
118992,500,33.84
119007,502,32.87
119023,495,33.84
119039,497,33.84
119054,503,34.48
119070,500,33.84
119085,503,32.55
119101,507,34.16
119116,506,34.16
119131,524,34.16
119146,533,32.87
119161,537,33.84
119176,544,33.84
119191,554,32.87
119206,556,33.52
119221,554,34.16
119236,546,34.16
119252,540,33.84
119267,534,33.84
119282,523,33.84
119297,521,33.84
119312,515,33.84
119327,514,31.90
119342,511,32.55
119357,507,34.48
119372,502,33.19
119387,504,32.55
119402,498,34.48
119417,505,34.16
119432,499,33.84
119447,507,34.16
119462,509,32.23
119477,509,33.52
119492,503,34.48
119507,510,32.23
119522,512,32.87
119537,510,34.16
119552,506,33.84
119567,512,32.55
119582,508,34.48
119597,502,33.52
119612,502,34.80
119627,500,34.16
119642,505,31.90
119657,503,32.23
119672,501,34.48
119687,505,32.55
119702,496,34.16
119717,496,33.84
119732,495,34.16
119747,497,34.16
119762,496,33.84
119777,499,33.84
119792,513,33.19
119807,519,34.16
119822,529,33.84
119837,535,34.16
119852,540,33.52
119867,541,34.16
119882,545,34.16
119897,547,33.19
119912,545,32.55
119927,529,34.16
119942,524,34.16
119957,522,33.84
119972,516,33.84
119987,507,33.52
120002,509,32.87
120017,506,32.23
120032,500,34.48
120047,501,32.23
120062,501,32.23
120077,500,32.87
120093,502,34.16
120108,501,33.84
120123,506,32.23
120138,506,32.23
120153,503,33.52
120168,510,34.16
120184,511,32.55
120199,504,34.16
120214,510,34.16
120229,508,34.16
120244,506,32.87
120259,504,32.23
120275,499,33.84
120291,495,33.84
120306,498,34.16
120322,501,33.84
120337,497,34.48
120352,502,34.16
120367,495,33.84
120383,491,33.84
120399,503,33.52
120414,498,34.16
120430,503,33.52
120446,510,33.84
120461,518,33.84
120477,532,32.55
120492,540,33.19
120508,545,33.19
120524,548,32.87
120539,548,32.55
120555,544,33.52
120571,536,33.19
120586,529,32.55
120602,520,33.52
120618,518,32.87
120634,512,32.87
120650,506,32.55
120666,503,32.87
120682,497,34.16
120698,489,33.84
120714,500,32.87
120730,503,33.19
120746,500,34.16
120762,509,34.48
120778,504,33.84
120794,510,33.84
120810,510,34.48
120826,514,34.80
120842,507,33.84
120858,506,33.84
120874,511,32.87
120890,501,34.16
120906,501,34.48
120922,502,34.16
120938,503,34.48
120954,505,33.84
120970,506,32.23
120986,499,34.16
121002,499,33.84
121018,501,33.84
121034,508,32.23
121049,511,33.52
121065,507,33.84
121081,515,32.23
121096,519,34.16
121112,528,33.84
121128,541,34.16
121144,552,32.55
121160,560,32.87
121176,553,34.16
121191,560,32.55
121207,551,33.84
121223,550,32.55
121239,538,33.84
121255,534,34.48
121271,521,33.84
121286,516,33.19
121302,523,33.52
121317,520,34.48
121333,519,32.55
121349,513,33.84
121364,512,33.84
121380,514,32.87
121395,507,34.16
121411,511,33.19
121427,507,34.16
121442,512,32.55
121458,501,33.84
121473,507,32.55
121489,507,32.55
121505,507,32.55
121520,501,34.16
121536,500,33.52
121551,507,32.23
121566,509,32.87
121581,501,34.16
121596,508,32.23
121611,505,34.16
121627,500,33.84
121642,504,34.48
121657,504,32.23
121672,506,33.84
121687,506,34.16
121702,507,32.55
121717,509,35.13
121732,516,32.55
121747,521,33.52
121762,523,33.84
121777,537,32.55
121792,545,32.55
121807,540,33.84
121822,544,34.16
121838,543,34.16
121853,545,32.23
121868,534,33.84
121883,535,33.84
121898,528,33.84
121913,521,34.48
121928,518,32.87
121943,516,32.87
121958,510,33.84
121973,507,33.19
121988,503,32.87
122003,501,33.84
122018,504,34.48
122033,504,32.23
122048,501,34.16
122063,505,33.84
122078,498,33.84
122093,503,33.84
122108,502,34.16
122123,509,32.87
122138,510,33.19
122153,502,33.84
122168,507,33.84
122183,503,34.16
122198,501,33.84
122213,504,32.55
122228,502,34.48
122243,497,33.84
122258,491,33.84
122273,492,34.16
122288,501,33.84
122303,500,33.52
122318,499,32.55
122333,494,33.52
122348,499,33.84
122363,506,33.19
122378,519,32.87
122393,533,33.52
122408,540,32.87
122423,546,34.16
122438,549,34.48
122453,550,34.16
122468,542,33.84
122483,544,33.19
122498,540,32.87
122513,533,34.16
122528,520,33.84
122543,521,33.84
122558,515,33.19
122573,505,33.84
122588,500,33.84
122603,504,33.19
122618,497,34.16
122633,497,33.52
122648,506,34.16
122663,510,31.90
122678,512,34.16
122693,513,33.19
122708,504,33.52
122723,509,32.87
122738,507,33.84
122753,509,32.55
122768,507,33.19
122783,506,33.84
122798,502,34.16
122813,499,34.16
122828,503,32.23
122843,506,32.23
122858,506,32.87
122873,504,33.84
122888,508,32.55
122903,506,32.87
122918,505,36.09
122933,495,33.52
122948,503,32.87
122963,499,34.16
122978,505,33.84
122993,520,32.87
123008,531,32.55
123023,538,33.52
123038,539,34.16
123053,553,32.55
123068,552,33.84
123083,549,34.16
123098,547,33.84
123113,540,34.16
123128,534,34.16
123143,524,33.84
123158,527,35.13
123173,516,34.16
123188,515,34.16
123203,502,34.16
123218,506,31.90
123233,501,32.55
123248,499,33.84
123263,507,32.87
123278,509,34.16
123293,502,35.45
123308,511,34.16
123323,508,34.16
123338,513,34.16
123353,515,34.16
123368,514,32.55
123383,513,32.23
123398,510,33.84
123413,507,33.19
123428,506,33.84
123443,501,33.84
123458,498,32.23
123473,490,33.84
123488,491,33.52
123503,489,33.84
123518,489,33.84
123533,500,33.52
123548,491,34.16
123563,502,32.23
123578,506,32.87
123593,507,34.16
123608,516,33.84
123623,524,34.16
123638,543,33.84
123653,551,33.84
123668,556,34.16
123683,559,34.16
123698,561,32.55
123713,554,33.84
123728,554,32.55
123743,536,34.16
123758,528,34.16
123773,526,33.19
123788,519,33.84
123803,512,32.55
123818,498,34.16
123833,499,32.55
123848,491,33.84
123863,497,31.90
123878,496,33.84
123893,498,33.52
123908,501,32.23
123923,506,33.19
123938,503,33.52
123953,505,34.16
123968,511,34.16
123983,511,34.48
123998,514,32.55
124013,510,32.23
124028,505,32.55
124043,501,32.87
124058,488,34.16
124073,485,33.84
124088,486,34.16
124103,486,34.48
124118,492,33.19
124133,487,33.84
124148,497,35.45
124163,497,31.90
124178,491,33.84
124193,496,32.23
124208,509,33.84
124223,512,34.16
124238,519,33.52
124253,533,34.16
124268,539,34.48
124283,550,33.84
124298,550,34.16
124313,545,34.16
124328,546,32.23
124343,544,32.55
124358,529,33.84
124373,528,34.16
124388,524,32.55
124403,511,33.84
124418,506,33.84
124433,499,34.48
124448,500,32.87
124463,489,33.84
124478,493,34.16
124493,494,33.84
124508,498,33.84
124523,503,32.87
124538,504,33.19
124553,508,33.52
124568,507,33.84
124583,511,33.84
124598,505,34.16
124613,514,32.87
124628,501,33.52
124643,506,34.48
124658,508,32.87
124673,505,33.52
124688,496,34.16
124703,503,32.87
124718,499,32.87
124733,493,33.84
124748,491,33.52
124763,499,34.16
124778,497,33.84
124793,494,33.84
124808,505,31.90
124823,504,33.84
124838,520,32.55
124853,524,33.84
124868,538,33.84
124883,541,33.84
124898,550,32.87
124913,556,33.84
124928,549,34.16
124943,551,33.19
124958,545,33.84
124973,537,33.84
124988,529,34.16
125003,525,32.87
125018,519,33.84
125033,512,33.52
125048,508,33.84
125063,497,33.19
125078,495,34.16
125093,497,32.55
125108,500,32.23
125123,502,32.55
125138,502,32.55
125153,499,34.48
125168,503,34.48
125183,509,34.16
125198,508,32.55
125213,504,34.16
125228,508,32.23
125243,503,33.84
125258,500,33.84
125273,510,34.16
125288,497,33.84
125303,501,34.16
125318,504,33.84
125333,505,33.19
125348,496,33.84
125363,495,33.84
125378,499,34.48
125393,505,34.16
125408,505,33.84
125423,507,33.52
125438,511,33.84
125453,511,34.80
125468,517,33.52
125483,530,33.84
125498,533,33.84
125513,545,34.48
125528,550,32.55
125543,546,33.84
125558,544,32.87
125573,539,32.55
125588,530,34.16
125603,523,34.16
125618,522,32.23
125633,511,33.84
125648,507,32.55
125663,501,32.87
125678,494,32.55
125693,495,31.90
125708,492,32.87
125723,492,32.55
125738,494,33.19
125753,498,32.23
125768,494,33.84
125783,500,32.23
125798,500,33.84
125813,499,33.84
125828,503,32.87
125843,497,34.16
125858,497,33.84
125873,501,34.16
125888,501,34.16
125903,501,33.84
125918,500,33.52
125933,502,33.19
125948,499,34.48
125963,492,33.84
125978,491,33.84
125993,498,33.19
126008,497,34.16
126024,498,34.16
126039,501,34.16
126054,511,34.16
126069,519,33.84
126084,533,33.19
126099,537,33.19
126115,541,32.87
126130,537,33.84
126145,542,34.16
126160,541,32.55
126175,538,33.19
126190,532,34.16
126206,525,34.16
126222,515,34.16
126237,512,32.23
126253,508,33.19
126268,496,34.80
126283,498,33.52
126298,497,34.16
126314,494,33.84
126330,504,32.55
126345,500,32.55
126361,504,32.87
126376,496,33.84
126392,506,32.55
126408,505,32.55
126423,505,34.16
126439,498,33.84
126455,495,33.84
126470,499,33.52
126486,504,33.84
126501,502,34.16
126517,499,34.16
126533,503,32.55
126548,503,32.55
126564,503,34.16
126580,501,32.55
126596,501,34.16
126612,496,34.48
126628,506,32.55
126644,507,34.16
126660,512,33.84
126676,528,33.52
126692,531,33.84
126708,537,33.84
126724,549,33.84
126740,549,34.48
126756,545,32.55
126772,542,33.84
126788,534,34.16
126803,527,34.16
126819,524,34.16
126835,512,34.16
126851,516,34.16
126867,511,32.87
126883,503,33.52
126898,499,33.84
126914,493,33.52
126930,500,34.16
126946,502,34.16
126962,507,32.87
126977,510,34.16
126993,503,34.16
127009,511,34.16
127024,511,32.55
127040,512,32.87
127055,503,34.16
127070,508,34.16
127086,508,34.48
127101,502,34.16
127117,498,34.16
127132,501,34.16
127148,504,32.23
127164,507,32.55
127179,500,33.52
127195,495,33.19
127210,497,33.84
127226,506,33.52
127242,512,33.52
127257,507,33.84
127273,521,33.19
127288,533,33.19
127303,532,33.84
127318,540,33.84
127333,548,33.19
127348,545,34.16
127364,545,34.16
127379,540,33.19
127394,536,34.80
127409,528,32.55
127424,516,33.52
127439,518,32.55
127454,514,32.87
127469,510,33.84
127484,497,34.48
127499,502,32.55
127515,499,33.84
127530,501,32.55
127545,499,33.84
127560,503,33.84
127575,496,33.84
127590,501,33.84
127605,507,32.55
127620,503,33.52
127635,512,32.55
127650,509,33.84
127665,510,34.16
127680,509,32.87
127695,499,33.52
127710,505,34.16
127725,502,33.84
127740,500,33.52
127755,498,32.87
127770,492,33.52
127785,490,33.84
127800,492,34.16
127815,492,33.84
127830,498,32.87
127845,507,33.19
127860,509,33.52
127875,523,33.84
127890,533,32.55
127905,541,32.23
127920,546,33.84
127935,549,32.87
127950,547,34.16
127965,537,34.48
127980,532,32.23
127995,528,32.87
128010,514,33.84
128025,507,33.84
128040,505,33.84
128055,506,32.87
128070,502,34.16
128085,491,33.84
128100,499,33.84
128115,494,33.84
128130,502,32.55
128145,504,32.87
128160,501,33.84
128175,502,33.52
128190,505,33.19
128205,507,32.23
128220,500,34.48
128235,511,32.87
128250,502,34.48
128265,505,32.55
128280,500,34.16
128295,502,32.55
128310,500,32.23
128325,497,34.16
128340,497,32.87
128356,496,33.19
128371,499,34.16
128386,502,32.55
128401,502,34.16
128416,495,33.52
128431,512,32.55
128447,509,33.84
128462,525,33.52
128477,533,33.84
128492,544,32.55
128507,549,33.84
128522,553,32.55
128537,552,32.55
128552,550,33.84
128567,549,33.84
128582,538,34.16
128597,538,33.52
128612,527,33.84
128628,516,33.52
128643,517,33.84
128658,512,33.52
128673,508,32.55
128688,504,34.16
128703,505,32.55
128719,505,32.87
128735,498,34.16
128750,506,32.55
128766,503,33.84
128781,508,34.16
128797,509,33.84
128813,501,33.84
128828,511,33.84
128844,506,33.84
128860,504,33.84
128875,511,32.55
128891,509,34.16
128906,508,33.52
128922,502,33.52
128938,501,34.16
128954,502,34.16
128970,505,34.16
128986,498,34.16
129001,503,33.19
129017,503,34.16
129033,509,32.23
129049,515,34.16
129065,518,33.52
129081,529,34.16
129097,545,34.48
129113,548,34.48
129129,557,32.87
129145,553,33.84
129161,540,33.84
129177,541,33.84
129193,536,32.87
129209,529,32.23
129225,521,32.87
129241,509,34.16
129257,508,31.90
129273,503,33.84
129289,504,33.84
129305,493,33.84
129321,500,34.48
129337,504,32.87
129353,507,33.52
129369,509,33.52
129385,511,34.80
129401,511,33.52
129417,513,32.55
129433,510,34.16
129449,513,34.16
129465,505,34.16
129480,507,32.87
129496,508,32.87
129512,507,33.84
129527,507,32.55
129543,506,32.55
129558,505,32.55
129574,499,34.48
129590,499,32.55
129605,499,32.55
129621,504,32.87
129636,505,33.84
129652,516,33.52
129668,526,33.52
129683,537,32.87
129699,541,34.16
129714,545,33.19
129730,544,33.84
129746,544,32.55
129761,539,33.52
129777,533,32.23
129792,520,33.84
129808,523,32.23
129823,512,32.87
129838,497,33.19
129853,495,33.84
129868,491,34.16
129883,490,33.84
129898,498,33.84
129913,494,34.48
129928,499,32.87
129943,502,32.87
129958,506,33.19
129973,503,34.16
129989,507,32.87
130004,510,33.84
130019,504,34.16
130034,498,33.52
130049,507,32.87
130064,504,33.19
130079,498,34.16
130094,501,32.55
130109,501,32.55
130124,495,34.16
130140,495,33.84
130155,497,32.55
130170,490,34.16
130185,489,33.84
130200,492,33.84
130215,503,32.23
130230,511,34.48
130245,521,33.52
130260,524,34.48
130275,536,33.84
130290,549,31.90
130305,550,33.19
130320,550,33.84
130335,547,33.84
130350,541,32.55
130365,538,33.84
130380,521,34.16
130395,517,33.52
130410,517,32.55
130425,506,33.84
130440,497,34.16
130455,496,34.16
130470,497,33.52
130485,494,34.16
130500,496,33.84
130515,502,32.87
130530,497,33.84
130545,499,33.84
130560,507,33.84
130575,509,33.19
130590,511,34.16
130605,510,33.19
130620,510,34.16
130635,508,32.55
130650,511,34.16
130665,501,33.52
130680,497,33.84
130695,503,33.84
130710,504,34.16
130725,503,32.87
130740,494,33.52
130755,502,32.23
130770,491,33.84
130785,503,32.87
130800,510,32.87
130815,513,33.84
130830,528,34.48
130845,534,34.48
130860,539,34.16
130875,547,32.87
130890,553,33.84
130905,546,33.84
130921,547,34.16
130936,541,34.48
130951,536,33.19
130966,521,33.84
130981,517,34.16
130996,512,34.48
131011,512,34.48
131026,499,33.52
131041,506,32.87
131056,502,33.52
131071,497,33.84
131086,499,34.16
131102,495,33.84
131117,505,33.84
131132,500,33.84
131147,503,33.84
131163,509,33.19
131179,509,33.52
131194,503,33.84
131209,506,35.13
131224,508,32.23
131240,507,33.19
131255,508,32.55
131270,498,33.19
131285,504,33.84
131300,500,33.84
131315,504,33.84
131331,497,33.84
131347,494,34.16
131362,504,32.23
131378,503,33.52
131393,516,33.52
131409,526,32.23
131425,538,32.23
131440,546,32.55
131456,549,34.16
131472,549,32.55
131487,549,34.16
131503,540,33.84
131518,542,33.84
131534,533,33.84
131549,518,33.84
131565,513,33.84
131581,506,33.52
131597,499,34.48
131612,495,34.16
131628,500,33.84
131643,500,33.52
131659,499,34.16
131675,502,33.84
131691,500,33.84
131707,497,34.16
131723,507,32.55
131739,510,33.52
131755,510,33.52
131771,502,33.19
131787,507,34.48
131803,510,32.55
131819,508,34.16
131835,505,34.16
131851,500,34.16
131867,500,33.19
131883,492,33.52
131898,494,33.84
131914,499,33.52
131930,503,32.55
131946,497,34.16
131962,509,32.23
131978,513,34.16
131993,528,32.55
132009,537,33.84
132025,541,34.16
132040,540,33.84
132056,549,33.84
132071,546,32.23
132087,540,32.87
132103,527,33.84
132118,521,34.16
132134,510,34.16
132149,509,33.84
132165,507,31.58
132181,503,32.55
132196,500,34.16
132212,498,32.55
132227,500,33.84
132243,504,33.84
132259,506,32.55
132274,503,34.16
132290,508,32.55
132305,510,33.52
132321,509,34.16
132337,504,33.52
132352,504,33.84
132368,503,34.16
132383,508,33.52
132398,501,33.19
132413,502,33.84
132428,505,34.80
132443,505,33.84
132458,499,33.84
132473,501,32.55
132489,501,32.87
132504,501,34.48
132519,497,34.16
132534,507,32.55
132549,509,33.84
132564,522,32.87
132579,533,32.23
132594,540,32.23
132609,541,34.16
132624,553,33.19
132640,549,34.16
132655,547,33.84
132670,545,33.84
132685,544,34.16
132700,535,32.23
132715,522,33.84
132730,514,33.84
132745,511,34.16
132760,504,32.87
132775,504,32.87
132790,502,32.23
132805,501,33.19
132820,497,32.23
132835,506,33.84
132850,501,34.16
132865,507,32.23
132880,501,34.16
132895,503,33.84
132910,507,34.16
132925,504,34.16
132940,507,33.84
132955,511,33.84
132970,508,33.19
132985,504,34.16
133000,501,33.84
133015,504,33.84
133030,503,33.52
133045,504,34.48
133060,503,32.55
133075,502,32.87
133090,499,33.52
133105,497,33.84
133120,496,34.48
133135,503,33.52
133150,510,33.52
133165,525,33.52
133180,532,33.84
133195,542,33.84
133210,547,34.16
133225,542,33.52
133240,551,32.23
133255,549,34.48
133270,540,33.52
133285,532,34.16
133300,530,32.87
133315,525,32.23
133330,511,34.16
133345,512,32.55
133360,505,32.55
133375,500,32.87
133390,500,32.87
133405,497,33.52
133420,499,33.19
133435,495,33.84
133450,506,33.52
133465,503,33.84
133480,506,34.16
133495,511,34.16
133510,515,32.55
133525,506,33.52
133540,510,33.84
133555,512,32.87
133570,507,34.16
133585,507,32.55
133600,507,32.87
133615,504,33.52
133630,504,33.52
133645,495,34.16
133660,498,34.16
133675,497,33.84
133690,498,34.16
133705,501,32.23
133720,497,33.84
133736,506,34.16
133751,514,32.23
133766,521,34.16
133781,532,34.16
133796,537,34.16
133811,542,32.87
133826,544,32.87
133841,544,32.87
133856,539,33.84
133871,534,34.16
133887,528,32.87
133903,520,32.23
133918,507,34.48
133934,501,33.84
133949,503,33.84
133965,495,34.16
133981,491,33.84
133996,495,33.19
134012,494,33.84
134027,492,33.84
134043,493,33.84
134059,506,32.55
134074,500,33.84
134090,509,33.84
134106,503,33.84
134121,512,33.84
134137,510,33.84
134153,510,33.84
134168,506,33.19
134184,508,33.84
134200,500,33.84
134216,500,33.52
134232,500,33.84
134248,501,33.84
134264,499,33.84
134280,503,32.55
134296,498,33.84
134312,503,34.16
134328,517,32.87
134344,528,32.55
134359,538,34.16
134375,546,33.84
134391,556,33.19
134407,550,33.19
134423,555,32.55
134439,552,32.87
134454,545,34.16
134470,536,34.16
134485,528,34.48
134501,528,34.16
134516,522,33.84
134532,515,34.16
134548,511,33.84
134563,506,34.16
134579,502,34.16
134594,495,33.84
134609,499,34.16
134625,504,33.84
134640,506,33.52
134655,502,33.84
134670,508,34.16
134685,507,34.16
134700,506,32.55
134716,508,32.55
134731,507,31.90
134747,508,32.23
134762,508,32.23
134777,505,34.16
134792,504,33.84
134808,503,34.16
134824,506,32.87
134839,506,32.23
134854,501,33.19
134869,500,33.52
134885,506,34.16
134900,510,32.87
134915,514,33.52
134930,522,33.84
134945,532,32.87
134960,538,33.52
134976,540,34.16
134991,549,32.23
135006,542,33.84
135021,549,34.16
135036,545,32.87
135051,532,33.84
135066,534,34.16
135081,515,33.52
135096,517,33.84
135111,514,32.87
135127,508,33.52
135142,504,32.55
135157,499,33.84
135172,496,33.52
135187,497,32.23
135202,491,34.16
135217,498,33.84
135232,491,34.16
135247,500,32.87
135262,495,34.16
135277,491,33.52
135292,504,32.23
135307,496,34.16
135322,501,33.84
135337,503,32.55
135352,503,32.55
135367,498,33.84
135382,503,33.84
135397,495,33.84
135412,498,34.16
135427,505,32.55
135442,502,33.52
135457,503,33.52
135472,494,33.84
135487,502,32.87
135502,507,34.48
135517,513,34.16
135532,524,33.19
135547,532,32.23
135562,541,33.84
135577,550,33.84
135592,553,32.23
135607,553,32.55
135622,547,32.55
135637,540,34.16
135652,532,33.52
135667,528,32.55
135682,518,34.16
135697,510,34.16
135712,506,33.84
135727,494,33.52
135742,501,32.55
135757,499,32.55
135772,498,33.84
135787,499,32.55
135802,494,33.84
135817,505,32.87
135832,505,32.87
135847,503,33.84
135862,507,33.84
135877,511,32.55
135892,502,34.16
135907,511,33.52
135922,508,33.84
135937,505,34.80
135952,505,33.19
135967,505,33.52
135982,501,34.16
135997,503,32.87
136012,493,33.84
136027,500,34.16
136042,499,33.84
136057,495,33.84
136072,500,32.55
136087,498,33.84
136102,504,34.16
136117,511,33.84
136132,525,33.84
136147,536,33.84
136162,536,33.52
136177,541,34.16
136192,549,34.16
136207,549,34.16
136222,544,34.16
136237,539,33.19
136252,525,33.19
136267,527,33.19
136282,519,32.23
136297,514,32.87
136312,511,32.87
136327,502,33.52
136342,502,34.48
136357,504,32.23
136372,497,33.19
136387,499,34.16
136402,504,34.16
136417,505,33.19
136432,504,34.80
136447,509,34.16
136462,507,33.84
136477,510,32.87
136492,509,34.48
136507,503,33.84
136522,509,32.55
136537,508,33.52
136552,509,32.55
136567,500,33.52
136582,506,32.23
136597,505,32.87
136612,496,34.16
136627,505,34.16
136642,502,33.84
136657,504,32.87
136672,506,33.52
136687,508,33.84
136702,518,33.84
136717,524,34.16
136732,531,33.84
136747,540,33.52
136762,545,33.84
136777,549,33.84
136792,546,33.84
136807,546,33.52
136822,546,32.55
136837,532,34.16
136852,532,32.55
136867,522,33.84
136882,519,33.84
136897,510,34.16
136912,509,33.52
136927,503,32.23
136942,501,32.55
136957,498,33.84
136972,492,34.16
136987,495,33.84
137002,496,33.52
137017,505,33.84
137032,508,33.19
137047,511,32.55
137062,504,34.16
137077,510,32.23
137092,511,34.16
137107,509,33.84
137122,508,34.48
137137,507,33.84
137152,514,33.84
137167,510,33.52
137182,517,34.16
137197,517,33.84
137212,516,34.16
137227,512,32.87
137242,511,33.84
137257,504,33.84
137272,512,32.55
137287,516,33.52
137302,517,32.87
137317,527,32.87
137332,531,34.16
137347,532,32.87
137362,528,34.16
137377,536,33.84
137392,525,33.84
137407,523,33.84
137422,522,33.84
137437,521,33.84
137452,517,34.48
137467,510,34.16
137482,497,33.52
137497,501,33.19
137512,497,33.84
137527,496,32.55
137542,497,34.16
137557,498,32.55
137572,501,33.84
137587,501,33.84
137602,504,32.23
137617,496,33.52
137632,499,33.84
137647,496,34.16
137662,501,33.52
137677,494,34.16
137692,497,34.16
137707,498,32.23
137722,493,33.84
137737,499,32.55
137752,499,32.87
137767,497,33.52
137782,494,32.23
137797,489,34.16
137812,490,33.84
137827,500,32.87
137842,498,33.52
137857,509,34.16
137872,516,34.16
137887,519,33.52
137902,536,33.52
137917,542,32.55
137932,546,33.52
137947,543,33.19
137962,534,33.84
137977,534,33.84
137992,528,33.52
138007,522,33.84
138022,516,34.16
138037,503,34.16
138052,505,34.16
138067,494,33.84
138082,497,34.16
138097,491,33.84
138112,492,33.84
138127,501,32.55
138142,499,33.52
138157,502,32.23
138172,499,33.84
138187,509,32.55
138202,506,33.52
138217,510,32.23
138232,512,33.52
138247,508,32.55
138262,510,31.58
138277,506,34.16
138292,506,33.52
138307,500,34.16
138322,503,34.16
138337,499,32.87
138352,498,31.90
138367,495,33.19
138382,492,33.52
138397,492,33.84
138412,505,33.84
138427,509,33.84
138442,518,33.84
138457,524,34.48
138472,536,33.84
138487,543,32.23
138502,543,33.84
138517,541,33.84
138532,537,33.84
138547,538,33.19
138562,527,33.84
138577,530,32.55
138592,519,33.84
138607,515,32.23
138622,511,32.23
138637,502,33.19
138652,500,32.55
138667,490,33.52
138682,494,34.16
138697,489,34.48
138712,496,34.16
138727,497,33.84
138742,499,33.52
138757,503,34.16
138772,501,34.16
138787,503,34.16
138802,502,33.84
138817,508,34.48
138832,508,32.87
138847,499,33.84
138862,498,33.84
138877,500,34.16
138892,490,34.16
138907,497,33.84
138922,491,33.84
138937,499,33.19
138952,495,33.84
138967,505,33.84
138982,503,33.84
138997,518,32.55
139012,526,32.87
139027,530,33.84
139042,540,33.19
139057,547,33.19
139072,551,33.84
139087,548,33.52
139102,544,32.87
139117,537,34.16
139132,529,32.55
139147,520,33.19
139162,510,33.19
139177,490,33.84
139192,479,33.84
139207,472,33.84
139222,476,34.80
139237,469,33.52
139252,473,33.84
139267,489,32.55
139282,484,33.52
139297,497,32.23
139312,500,32.55
139327,500,33.52
139342,508,32.55
139357,512,33.84
139372,511,34.80
139387,509,34.16
139402,505,33.84
139417,502,34.16
139432,500,33.52
139447,502,33.19
139462,492,33.19
139477,493,33.84
139492,498,32.23
139507,496,33.52
139522,501,32.23
139537,505,33.84
139552,503,34.16
139567,509,34.16
139582,528,31.90
139597,537,33.84
139612,545,32.55
139627,542,33.52
139642,548,34.48
139657,548,34.16
139672,538,33.84
139687,541,33.19
139702,534,33.52
139717,531,32.55
139732,516,33.84
139747,518,32.55
139762,515,33.84
139777,504,33.52
139792,502,33.84
139807,502,33.84
139822,500,33.84
139837,496,34.16
139852,494,33.84
139867,504,33.19
139882,502,34.48
139897,505,34.16
139912,503,33.52
139927,509,33.84
139942,510,33.84
139957,509,32.55
139972,503,32.55
139987,505,33.84
140002,504,33.52
140017,502,32.87
140032,504,33.84
140047,502,33.84
140062,500,33.84
140077,501,33.84
140092,501,34.16
140107,506,32.55
140122,505,32.23
140137,518,33.84
140152,518,33.84
140167,533,33.52
140182,542,34.16
140197,546,33.52
140212,549,32.55
140227,548,33.84
140242,546,32.55
140257,540,33.84
140272,533,33.84
140287,525,33.52
140302,520,33.52
140317,513,32.55
140332,506,33.52
140347,504,33.84
140362,499,34.16
140377,493,34.16
140392,498,34.16
140407,499,33.84
140422,496,32.23
140437,500,33.84
140452,504,32.55
140467,507,34.16
140482,508,33.84
140497,504,33.84
140512,510,32.23
140527,509,33.52
140542,509,33.84
140557,508,34.16
140572,509,32.55
140587,503,33.84
140602,498,32.55
140617,502,33.84
140632,499,34.48
140647,499,32.23
140662,498,34.48
140677,498,34.16
140692,503,33.84
140707,503,34.16
140722,513,33.84
140737,524,32.55
140752,534,34.16
140767,535,33.52
140782,543,33.84
140797,547,32.55
140812,539,32.87
140827,538,32.55
140842,534,33.84
140857,527,31.90
140872,519,34.16
140887,505,33.84
140902,506,34.16
140917,500,34.16
140932,496,32.55
140947,484,34.16
140962,486,33.52
140977,496,34.16
140992,497,32.87
141007,500,34.16
141022,503,34.16
141037,497,33.84
141052,500,33.52
141067,504,34.16
141082,501,33.84
141097,509,34.16
141112,504,32.55
141127,506,33.52
141142,502,34.16
141157,502,33.52
141172,499,33.52
141187,500,32.23
141202,498,33.52
141217,493,34.16
141232,499,31.90
141247,495,34.16
141262,502,34.16
141277,500,33.52
141292,516,31.90
141307,527,34.16
141322,536,32.55
141337,537,33.84
141352,549,32.23
141367,550,34.16
141382,540,33.84
141397,546,32.55
141412,534,34.16
141427,532,34.48
141442,527,32.87
141457,517,34.16
141472,513,33.52
141487,509,32.23
141502,504,33.84
141517,502,34.16
141532,502,32.87
141547,503,32.55
141562,503,32.23
141577,502,33.52
141592,506,32.87
141607,508,32.87
141622,508,34.16
141637,503,33.52
141652,512,32.87
141667,510,32.55
141682,510,34.16
141697,506,34.16
141712,507,33.84
141727,504,34.16
141742,504,33.52
141757,504,32.87
141772,504,34.16
141787,503,32.55
141802,504,33.84
141817,502,34.16
141832,504,32.87
141847,501,34.16
141862,513,32.55
141877,522,33.19
141892,522,33.84
141907,539,33.52
141922,537,33.84
141937,544,34.16
141952,553,32.87
141967,545,33.84
141982,545,34.16
141997,544,33.52
142012,539,32.55
142027,522,33.19
142042,522,32.55
142057,515,32.55
142072,505,33.84
142087,508,32.55
142102,497,33.84
142117,503,32.87
142132,503,33.84
142147,502,32.55
142162,496,34.16
142177,507,33.52
142192,509,34.16
142207,510,33.52
142222,509,34.16
142237,512,33.52
142252,508,34.16
142267,512,33.19
142282,512,32.87
142297,510,33.19
142312,499,33.84
142327,498,33.84
142342,502,33.84
142357,501,31.58
142372,497,33.84
142387,501,32.87
142402,500,33.19
142417,494,34.16
142432,505,34.48
142447,501,33.84
142462,509,33.84
142477,525,33.19
142492,533,34.16
142507,534,33.84
142522,542,34.16
142537,541,34.48
142552,546,32.55
142567,545,33.19
142582,538,32.23
142597,530,33.52
142612,524,32.55
142627,519,33.52
142642,514,32.55
142657,508,34.16
142672,505,32.87
142687,499,32.23
142702,498,34.48
142717,488,33.84
142732,493,33.84
142747,500,32.23
142762,498,32.55
142777,503,33.84
142792,504,33.52
142807,498,33.84
142822,500,33.84
142837,507,34.16
142852,497,33.84
142867,497,33.84
142882,503,32.23
142897,500,34.16
142912,497,34.16
142927,490,33.84
142942,495,31.90
142957,491,33.84
142972,497,34.16
142987,490,34.16
143002,500,32.23
143017,502,31.90
143032,501,33.84
143047,509,33.52
143062,523,33.84
143077,531,33.84
143092,536,34.16
143107,544,34.16
143122,553,32.87
143137,552,32.87
143152,539,34.16
143167,540,32.23
143182,528,34.48
143197,524,33.52
143212,508,33.84
143227,506,32.23
143242,504,33.52
143257,500,32.23
143272,496,32.87
143287,489,33.84
143302,493,33.19
143317,494,32.87
143332,493,34.16
143347,502,31.90
143362,497,33.84
143377,503,33.52
143392,508,33.84
143407,500,33.84
143422,508,32.23
143437,508,33.84
143452,508,33.84
143467,509,32.23
143482,498,33.84
143497,503,33.52
143512,498,33.84
143527,504,32.55
143542,503,33.84
143557,502,34.16
143572,493,33.84
143587,505,34.16
143602,501,33.52
143617,507,33.84
143632,524,32.55
143647,530,32.55
143662,542,32.23
143677,550,32.87
143692,544,34.16
143707,552,32.55
143722,547,34.16
143737,546,32.55
143752,540,34.16
143767,534,32.55
143782,520,33.84
143797,514,33.19
143812,506,33.84
143827,509,34.16
143842,505,32.87
143857,494,31.58
143872,494,33.84
143887,500,32.23
143902,503,32.23
143917,504,32.87
143932,503,33.84
143947,504,34.16
143962,509,33.84
143977,511,33.52
143992,510,32.55
144007,513,33.19
144022,512,34.16
144037,510,32.23
144052,500,34.16
144067,506,33.84
144082,499,34.16
144097,504,33.84
144112,505,32.87
144127,504,32.23
144142,504,32.55
144157,502,35.13
144172,507,32.55
144187,513,32.23
144202,520,33.84
144217,526,33.52
144232,535,34.16
144247,539,34.16
144262,549,34.16
144277,553,32.23
144292,541,33.52
144307,544,33.84
144322,540,33.19
144337,525,33.84
144352,518,34.16
144367,518,32.23
144382,514,32.55
144397,502,34.16
144412,503,34.16
144427,501,32.23
144442,494,33.84
144457,497,33.84
144473,498,34.16
144488,497,33.84
144503,506,33.84
144518,502,33.19
144533,500,33.84
144548,510,33.84
144563,511,33.84
144578,509,34.16
144593,503,33.84
144608,509,32.55
144624,505,32.87
144640,507,32.55
144655,504,32.55
144671,499,33.52
144686,503,33.84
144702,500,33.52
144718,498,31.90
144733,499,33.84
144749,502,32.23
144765,506,33.52
144780,509,34.16
144796,524,34.16
144811,534,32.87
144827,543,32.55
144843,546,34.16
144858,537,33.84
144874,541,32.55
144890,535,33.52
144905,530,32.55
144921,514,34.16
144936,506,33.52
144952,502,33.84
144968,495,33.52
144983,501,34.16
144999,497,33.52
145015,497,33.84
145031,499,32.87
145047,496,33.52
145063,499,34.16
145079,498,34.16
145095,506,34.16
145111,508,32.87
145126,499,33.52
145142,506,32.55
145158,509,32.87
145174,503,33.84
145190,503,34.48
145206,506,32.87
145222,495,33.84
145238,494,33.84
145254,500,33.52
145270,498,33.84
145286,499,33.19
145302,499,32.87
145318,489,34.16
145333,503,32.87
145349,510,34.80
145365,525,34.16
145381,527,33.52
145397,538,33.84
145413,549,32.55
145428,549,33.84
145444,545,33.19
145460,541,34.16
145476,533,33.84
145492,525,34.16
145508,517,32.87
145523,511,33.52
145539,506,32.55
145555,500,33.84
145571,499,32.23
145587,496,34.16
145603,496,33.84
145618,500,32.55
145634,502,33.19
145649,500,34.16
145665,507,32.87
145681,506,34.16
145696,503,33.84
145712,511,32.23
145727,513,33.84
145743,510,34.16
145759,511,33.52
145774,514,32.55
145790,508,33.84
145805,499,33.84
145821,503,33.84
145837,502,33.52
145852,502,33.19
145868,503,33.19
145883,503,33.84
145898,512,34.16
145913,519,30.29
145928,520,34.16
145943,537,32.23
145958,541,33.52
145973,548,32.23
145989,543,33.84
146004,549,34.16
146019,541,33.84
146034,538,33.19
146049,533,33.84
146064,527,34.16
146079,514,33.84
146094,512,34.16
146109,496,34.16
146124,506,34.16
146140,491,33.84
146155,498,34.48
146170,502,32.23
146185,502,32.87
146200,498,33.52
146215,503,34.16
146230,506,32.55
146245,500,33.52
146260,511,34.16
146275,514,32.55
146290,513,34.16
146305,502,33.19
146320,507,33.52
146335,507,34.16
146350,504,33.84
146365,501,34.16
146380,507,32.23
146395,501,34.16
146410,501,33.52
146425,495,33.84
146440,499,34.16
146455,500,34.16
146470,508,34.16
146485,518,33.84
146500,526,33.19
146515,538,32.55
146530,543,33.84
146545,551,33.84
146560,553,32.23
146575,543,34.16
146590,538,33.84
146605,539,32.55
146620,525,33.52
146635,521,33.84
146650,517,34.80
146665,514,33.52
146680,504,33.84
146695,503,32.87
146710,498,33.84
146725,493,33.19
146740,500,33.19
146755,501,32.87
146770,499,33.52
146785,508,32.23
146800,506,34.48
146815,510,33.52
146830,503,34.16
146845,503,33.52
146860,509,33.84
146875,511,32.87
146890,503,33.84
146905,506,33.84
146920,501,33.19
146935,494,33.52
146951,501,32.87
146966,500,33.19
146981,500,32.55
146996,491,34.16
147011,491,33.84
147026,506,33.52
147042,502,32.55
147057,500,33.52
147072,518,32.55
147087,529,33.84
147102,533,34.16
147117,544,34.16
147133,549,32.23
147149,547,33.84
147164,543,34.16
147180,536,32.23
147196,529,33.84
147211,526,33.84
147227,519,34.16
147242,504,33.84
147258,509,32.87
147274,493,33.84
147289,497,32.87
147305,491,33.84
147321,498,33.84
147336,505,32.55
147352,500,33.84
147367,506,33.52
147383,501,33.52
147399,503,34.16
147415,502,34.16
147431,510,32.23
147447,510,33.52
147463,509,32.55
147479,509,33.84
147495,505,32.87
147511,506,33.19
147527,501,33.84
147543,504,33.52
147559,499,34.16
147575,504,32.55
147591,498,33.84
147607,506,33.84
147623,502,33.19
147639,516,38.03
147655,528,32.23
147671,534,34.16
147687,546,32.87
147703,551,32.55
147719,548,33.52
147734,556,32.55
147750,541,34.16
147766,544,34.16
147782,538,33.84
147798,523,33.84
147814,522,32.87
147829,510,33.52
147845,501,33.84
147861,504,33.84
147877,501,32.55
147893,504,32.55
147909,502,33.84
147924,506,32.87
147940,502,33.84
147955,508,33.84
147971,508,34.48
147987,504,34.16
148002,512,32.23
148018,511,33.84
148034,511,33.52
148049,505,33.84
148065,507,34.16
148080,503,34.80
148096,506,34.16
148112,500,32.87
148127,497,33.84
148143,500,33.19
148158,504,33.19
148174,502,32.55
148190,503,34.48
148205,506,33.84
148221,509,32.87
148236,518,32.23
148252,528,32.87
148268,530,33.84
148283,538,33.52
148299,550,33.84
148314,554,33.19
148329,554,33.84
148344,549,32.55
148359,544,33.84
148374,537,32.23
148390,519,33.84
148405,517,33.84
148420,504,33.84
148435,503,33.84
148450,503,32.55
148465,499,34.16
148480,497,32.87
148495,494,34.16
148510,492,33.84
148525,503,33.84
148540,503,32.55
148555,500,33.84
148570,510,33.19
148585,509,32.87
148600,510,34.16
148615,509,33.52
148630,507,33.84
148645,503,34.48
148660,508,31.90
148675,498,34.16
148690,503,32.87
148705,495,34.16
148720,500,33.84
148735,491,34.16
148750,499,33.52
148765,490,34.80
148780,498,32.23
148795,498,33.19
148810,506,33.84
148825,509,33.84
148840,526,33.52
148855,536,32.87
148870,542,33.52
148885,548,33.84
148900,547,33.19
148915,549,33.84
148930,544,33.84
148945,536,34.16
148960,519,33.84
148975,519,34.48
148990,513,32.55
149005,499,33.52
149020,498,34.48
149035,489,33.84
149050,490,33.52
149065,495,32.55
149080,497,32.55
149095,493,33.84
149110,501,34.16
149125,503,34.48
149140,501,33.52
149155,508,32.87
149171,508,32.55
149186,506,33.84
149201,496,33.84
149216,504,34.16
149231,505,32.55
149246,495,33.52
149261,501,33.84
149276,496,33.52
149291,499,32.55
149306,492,34.16
149321,497,34.48
149336,493,33.84
149352,496,34.48
149367,493,34.16
149382,506,32.23
149397,513,32.55
149412,524,32.87
149427,535,33.84
149442,542,32.55
149457,541,33.52
149473,544,34.16
149488,545,34.48
149503,546,34.16
149518,539,32.87
149533,528,33.84
149548,525,32.87
149564,513,33.52
149580,507,33.84
149595,508,33.52
149611,502,34.48
149626,504,32.55
149642,499,33.84
149658,500,33.52
149673,501,32.87
149689,503,33.84
149705,510,32.55
149721,515,33.52
149737,502,33.84
149753,505,33.52
149769,506,33.84
149785,505,33.52
149801,510,33.52
149817,507,32.87
149833,510,32.23
149849,507,32.55
149865,503,34.16
149881,507,34.16
149897,504,33.52
149913,512,32.23
149929,511,32.55
149945,516,32.87
149961,519,34.16
149977,519,33.84
149993,535,33.84
150009,538,34.48
150025,540,34.80
150041,542,34.16
150057,546,32.87
150073,541,32.55
150088,530,33.84
150104,531,34.16
150120,526,32.87
150136,522,32.55
150152,514,32.55
150168,512,33.84
150184,507,32.87
150200,507,32.55
150216,504,32.55
150232,503,33.84
150248,506,32.55
150264,510,32.87
150280,502,33.84
150296,507,34.16
150312,509,32.87
150328,511,33.52
150344,510,33.84
150359,509,33.84
150375,507,34.16
150391,508,32.87
150407,507,33.84
150423,507,32.23
150439,503,32.55
150454,501,32.23
150470,504,32.87
150485,498,34.16
150501,501,32.87
150517,501,32.23
150532,509,34.16
150548,516,31.90
150563,527,33.84
150579,529,33.84
150595,545,34.16
150610,545,33.84
150626,546,34.16
150641,553,34.48
150657,549,33.84
150673,539,33.84
150688,536,32.55
150704,525,34.16
150719,510,33.84
150734,508,33.84
150749,497,33.84
150765,500,34.16
150781,499,33.84
150796,496,33.52
150812,495,34.48
150827,500,32.55
150842,504,31.90
150857,502,34.48
150872,503,32.55
150887,504,34.16
150902,508,32.87
150917,509,32.23
150933,508,32.55
150948,506,34.16
150963,506,32.23
150978,504,32.87
150993,494,33.84
151008,500,32.87
151023,502,33.84
151038,494,33.84
151053,498,32.55
151068,495,34.48
151083,501,31.90
151098,503,34.16
151113,513,33.84
151128,523,32.55
151143,530,34.48
151158,542,32.55
151173,541,33.84
151188,544,34.16
151203,548,32.87
151218,533,33.84
151233,530,33.52
151248,531,32.87
151263,523,34.48
151278,517,33.52
151293,508,32.87
151308,504,32.87
151323,496,34.48
151338,495,33.84
151353,490,33.52
151368,497,34.16
151383,500,32.55
151398,504,32.55
151413,506,33.84
151428,508,33.84
151443,506,34.16
151458,513,33.52
151473,514,33.84
151488,511,33.84
151503,505,33.84
151518,510,31.90
151533,506,33.84
151548,507,34.16
151563,507,32.87
151578,497,33.84
151593,497,33.84
151608,501,32.55
151623,501,33.84
151638,504,32.23
151653,508,32.55
151668,506,34.16
151683,518,33.52
151698,528,33.84
151713,536,33.84
151728,550,32.87
151743,547,34.48
151758,548,34.16
151773,550,33.52
151788,545,34.48
151803,533,33.84
151818,534,32.23
151833,523,34.16
151848,520,32.55
151863,510,33.84
151878,507,34.16
151893,496,33.84
151908,495,34.16
151923,501,34.16
151938,498,34.16
151953,499,33.84
151968,500,33.52
151983,510,33.19
151998,510,34.16
152013,508,33.84
152028,513,32.55
152043,513,34.16
152058,505,34.16
152073,507,34.16
152088,503,34.16
152103,505,32.23
152118,496,33.52
152133,503,32.55
152148,502,34.16
152163,501,32.23
152178,501,32.55
152193,500,33.84
152208,504,33.84
152223,506,33.52
152238,513,33.84
152253,520,32.23
152268,522,33.19
152283,533,33.84
152298,540,33.84
152313,551,33.19
152328,555,33.84
152343,553,32.55
152358,539,33.19
152373,541,32.87
152388,532,32.55
152403,523,33.84
152418,510,33.52
152433,512,32.87
152448,509,32.55
152463,502,33.19
152478,500,32.87
152493,498,33.84
152508,495,34.80
152523,492,33.52
152538,507,33.84
152553,507,32.55
152568,498,34.16
152583,502,34.16
152598,507,32.55
152613,509,32.87
152628,508,32.87
152643,509,32.87
152658,509,32.87
152673,500,33.84
152688,498,34.16
152703,505,34.16
152718,498,33.84
152733,502,33.52
152748,506,32.87
152763,502,34.16
152778,506,32.23
152793,506,33.84
152808,505,33.84
152823,515,33.84
152838,528,33.19
152853,530,34.16
152868,535,34.16
152883,540,34.48
152898,545,32.55
152913,540,34.16
152928,528,33.52
152943,530,32.23
152958,515,34.16
152973,516,32.55
152988,510,32.55
153003,506,33.84
153018,504,32.23
153033,499,33.84
153048,493,34.16
153063,493,33.84
153078,492,33.84
153093,501,32.55
153108,505,32.55
153123,501,33.84
153139,512,33.52
153154,511,33.19
153169,511,32.55
153184,508,32.55
153199,508,34.48
153214,511,33.84
153230,507,33.52
153245,502,33.84
153260,500,34.16
153275,503,34.48
153290,504,32.87
153305,504,33.84
153321,504,31.90
153336,505,32.55
153351,500,34.16
153366,510,33.84
153381,518,34.16
153396,529,33.84
153411,539,33.84
153426,539,33.84
153441,550,33.52
153456,551,33.84
153471,552,32.23
153486,547,32.55
153501,541,33.52
153516,536,33.19
153531,529,32.55
153546,517,34.16
153561,509,33.84
153576,501,33.84
153591,498,33.52
153606,505,33.52
153621,493,33.84
153636,502,32.23
153651,501,33.19
153666,503,32.23
153681,505,32.55
153696,506,33.84
153711,507,33.84
153726,509,33.52
153741,501,33.52
153756,509,32.55
153771,504,33.84
153786,496,34.48
153801,511,32.55
153816,506,34.48
153831,505,32.55
153846,505,32.87
153861,501,34.16
153876,501,33.84
153891,493,34.16
153906,496,33.84
153921,503,33.52
153936,505,32.23
153951,511,32.55
153966,523,33.52
153981,528,33.84
153996,532,34.16
154011,543,32.23
154026,548,33.84
154041,545,34.16
154056,545,32.87
154071,540,32.55
154086,524,33.52
154101,517,33.52
154116,517,34.16
154131,509,34.16
154146,504,34.48
154161,500,33.52
154176,495,33.84
154191,486,33.84
154206,496,32.87
154221,497,33.84
154236,499,31.90
154251,493,34.16
154266,502,32.23
154281,497,33.52
154296,506,31.90
154311,506,33.84
154326,503,33.84
154341,506,33.52
154356,503,34.16
154371,504,33.19
154386,494,33.84
154401,498,33.19
154416,498,32.87
154431,494,32.87
154446,496,33.84
154461,493,33.84
154476,494,34.16
154491,494,33.84
154506,507,33.84
154521,517,32.55
154536,523,32.55
154551,533,33.19
154566,532,33.84
154581,544,32.55
154596,536,33.84
154611,530,33.52
154626,533,32.55
154641,525,33.84
154656,522,33.84
154671,516,34.48
154686,512,33.84
154701,503,33.19
154716,498,32.87
154731,495,32.87
154746,488,34.16
154761,493,34.16
154776,498,32.87
154791,498,33.84
154806,500,34.80
154821,502,32.87
154836,505,32.23
154851,505,32.87
154866,503,31.90
154881,499,34.16
154896,503,33.84
154911,502,33.19
154926,503,33.84
154941,500,34.16
154956,501,34.16
154971,495,34.16
154986,496,33.84
155001,491,33.84
155016,490,33.84
155031,501,33.84
155046,506,32.23
155061,507,34.48
155076,514,33.84
155091,535,33.84
155106,538,33.84
155121,546,34.16
155136,553,32.55
155151,553,34.16
155166,550,32.87
155181,537,33.19
155196,535,34.16
155211,530,32.55
155226,518,34.16
155241,508,34.16
155256,510,34.16
155271,505,33.84
155287,501,32.87
155302,496,34.16
155318,500,31.58
155334,496,33.52
155349,494,33.84
155364,504,30.94
155379,507,31.90
155395,507,33.52
155410,507,33.84
155425,506,34.16
155440,505,33.52
155455,509,33.84
155470,509,32.55
155486,501,34.16
155501,506,33.19
155516,498,33.84
155531,495,32.87
155546,503,34.48
155561,501,32.87
155577,496,33.84
155593,508,32.55
155608,514,33.19
155624,514,33.52
155640,526,33.84
155655,544,32.55
155671,547,33.84
155686,543,34.16
155702,546,33.84
155718,539,34.16
155733,542,33.84
155749,536,32.87
155765,525,34.16
155780,520,32.87
155796,511,33.84
155811,502,33.84
155827,499,33.52
155843,494,33.84
155859,495,33.84
155875,500,32.23
155891,499,34.16
155907,495,33.84
155923,510,32.23
155939,509,33.84
155955,509,32.23
155971,502,36.42
155987,507,33.84
156003,500,33.84
156019,506,33.84
156035,502,32.23
156051,500,33.84
156066,496,33.52
156082,501,32.23
156098,499,34.16
156114,495,33.84
156130,498,32.23
156146,498,33.84
156161,508,33.52
156177,520,32.87
156193,520,33.52
156208,527,34.16
156224,542,33.84
156239,537,33.84
156255,544,33.52
156271,540,33.52
156286,540,33.19
156302,528,34.16
156317,517,33.84
156333,515,33.19
156349,508,34.16
156364,499,34.16
156380,501,32.55
156395,497,34.16
156411,493,33.84
156427,491,34.16
156442,491,33.84
156458,501,33.84
156473,497,34.16
156489,497,34.16
156505,507,34.48
156520,507,33.84
156536,499,33.52
156551,505,34.16
156566,505,34.48
156581,504,33.19
156596,504,33.84
156611,500,34.16
156627,501,32.55
156642,501,32.23
156657,500,32.55
156672,499,32.23
156687,497,32.23
156702,501,33.52
156717,506,32.87
156732,515,33.52
156747,522,32.87
156762,533,33.52
156777,538,34.16
156792,538,33.84
156808,545,32.87
156823,544,32.55
156838,540,34.48
156853,528,33.84
156868,524,34.48
156883,522,33.19
156898,509,34.16
156913,505,32.55
156928,503,33.52
156943,499,34.16
156958,496,33.84
156973,498,34.16
156988,491,33.19
157003,502,32.55
157018,504,32.23
157033,506,33.84
157048,507,32.55
157063,510,33.84
157078,503,33.84
157093,511,33.84
157108,509,34.16
157123,507,33.19
157138,498,33.84
157153,507,33.19
157168,502,34.48
157183,491,33.84
157198,498,34.48
157213,501,32.23
157228,501,33.19
157243,503,32.55
157258,506,34.16
157273,509,33.84
157288,517,33.84
157303,528,33.52
157318,541,32.87
157333,544,34.16
157348,548,33.84
157363,551,33.84
157378,546,33.84
157393,545,33.84
157408,536,33.84
157423,528,33.84
157438,520,33.52
157453,511,34.48
157468,503,33.84
157483,501,32.55
157498,494,33.84
157513,493,33.84
157528,494,34.16
157543,500,32.87
157558,499,33.19
157573,504,33.84
157588,505,32.23
157603,507,34.48
157618,501,33.84
157633,506,34.16
157648,512,32.23
157663,508,32.55
157678,507,32.87
157693,505,34.16
157708,506,33.19
157723,500,33.84
157738,505,32.55
157753,494,33.52
157768,504,32.55
157783,494,33.84
157798,497,34.16
157813,503,33.84
157828,511,32.87
157844,511,33.52
157860,517,33.84
157875,534,33.84
157890,542,33.84
157905,539,34.16
157921,546,34.16
157936,535,33.84
157951,530,33.84
157966,533,34.16
157981,524,34.16
157996,514,34.16
158012,510,34.48
158028,506,32.55
158043,501,32.87
158059,496,33.19
158074,495,32.87
158090,488,34.16
158106,497,33.84
158121,502,32.87
158137,502,32.55
158153,504,33.84
158168,506,32.87
158184,506,34.48
158199,498,33.84
158215,505,33.52
158231,502,33.84
158246,507,32.55
158262,505,33.84
158278,502,34.16
158293,498,33.52
158309,496,33.84
158325,489,34.16
158341,494,32.23
158357,495,34.16
158373,494,33.52
158389,503,34.16
158405,516,33.84
158421,526,32.55
158437,533,32.23
158453,540,33.52
158469,542,34.16
158485,540,34.16
158501,535,34.16
158517,537,32.87
158533,518,33.84
158549,509,33.52
158565,508,34.16
158580,501,33.84
158596,495,32.23
158612,494,32.87
158628,494,33.84
158644,489,34.16
158660,493,34.16
158676,497,33.19
158691,492,33.84
158707,494,33.84
158722,497,33.84
158738,505,32.23
158754,503,33.84
158769,502,33.84
158785,499,33.84
158800,501,31.90
158816,501,33.84
158832,490,33.84
158847,492,33.84
158863,493,33.84
158879,494,32.87
158894,498,32.23
158910,494,34.16
158925,493,33.52
158941,505,33.84
158957,515,34.16
158972,517,33.52
158988,529,34.48
159003,544,34.16
159019,546,32.87
159035,548,33.84
159050,537,33.84
159065,539,32.55
159080,534,33.19
159096,525,32.87
159111,516,33.52
159127,501,34.16
159143,504,32.55
159158,494,33.84
159174,491,34.16
159189,492,32.23
159204,497,33.19
159219,497,34.16
159234,493,33.84
159249,497,33.84
159265,507,33.84
159280,509,33.19
159295,512,32.55
159310,510,33.84
159325,514,32.55
159340,511,33.84
159355,506,34.16
159370,505,34.16
159385,507,32.55
159400,503,33.52
159415,505,32.55
159430,500,33.84
159445,500,34.16
159460,502,33.84
159475,500,34.16
159490,504,32.55
159505,508,34.48
159520,517,34.16
159535,532,34.16
159550,529,33.52
159565,542,32.23
159580,552,33.84
159595,548,33.84
159610,550,34.16
159625,545,33.52
159640,538,33.19
159655,534,32.55
159670,522,33.84
159685,509,33.84
159700,513,32.23
159715,505,34.16
159730,497,33.84
159745,493,33.52
159760,498,32.87
159775,500,32.55
159790,502,33.84
159805,506,32.23
159820,506,33.84
159835,505,33.84
159850,506,33.52
159865,512,33.19
159880,506,33.84
159895,510,34.16
159910,504,33.84
159925,508,34.16
159940,502,33.52
159955,500,34.16
159970,506,33.19
159985,497,33.84
160000,502,32.87
160015,493,33.84
160030,503,33.84
160045,504,33.19
160060,498,33.84
160075,507,32.55
160090,512,33.84
160105,517,34.16
160120,531,32.23
160135,533,34.16
160150,546,33.84
160165,541,34.80
160180,547,34.16
160195,542,33.84
160210,539,34.16
160225,533,32.87
160240,529,34.16
160255,519,34.48
160270,509,33.84
160285,508,33.84
160300,499,33.84
160315,499,32.55
160330,490,33.52
160345,491,36.09
160360,498,32.55
160375,499,33.84
160390,498,33.84
160405,506,33.52
160421,507,33.84
160436,510,34.16
160451,512,34.48
160466,503,33.84
160481,505,34.16
160496,508,34.16
160511,506,34.16
160526,506,34.48
160541,500,33.84
160556,505,33.19
160572,504,33.19
160587,502,33.52
160603,500,34.16
160619,499,33.84
160634,493,33.84
160650,495,34.16
160666,507,33.19
160681,513,34.16
160697,524,32.55
160712,524,33.52
160728,529,33.84
160744,541,33.84
160759,541,32.55
160775,540,34.16
160791,526,33.84
160806,529,33.52
160822,513,34.16
160837,510,34.16
160853,499,33.84
160869,495,33.19
160884,499,33.19
160900,495,33.52
160916,495,33.84
160931,487,33.52
160947,498,34.16
160962,503,32.55
160978,500,33.52
160993,498,33.84
161009,504,34.16
161025,505,32.55
161040,500,33.84
161056,499,34.16
161072,499,34.80
161088,500,33.84
161104,496,34.16
161120,500,33.52
161136,502,32.55
161152,495,33.52
161168,502,34.48
161184,505,32.55
161200,502,32.55
161216,502,33.19
161232,507,33.52
161247,511,33.52
161263,519,34.16
161279,530,32.55
161295,536,32.55
161311,545,34.16
161327,546,33.84
161342,552,32.55
161358,540,34.16
161374,541,34.16
161390,531,34.48
161406,531,34.16
161422,523,32.55
161437,518,33.84
161453,513,34.16
161468,509,32.87
161484,499,33.84
161500,503,33.19
161515,505,34.16
161531,499,33.52
161546,505,32.23
161562,505,33.19
161577,507,33.84
161592,510,32.23
161607,514,34.16
161622,513,33.84
161637,503,34.16
161652,507,34.48
161667,506,32.87
161683,506,32.55
161699,498,33.52
161714,495,33.52
161730,501,34.16
161745,500,33.52
161760,501,32.55
161775,495,34.16
161790,504,33.84
161805,505,32.55
161821,497,33.52
161836,510,32.55
161851,519,33.52
161866,521,33.52
161881,535,32.87
161896,544,32.23
161911,548,33.84
161926,547,34.48
161941,549,33.52
161956,547,33.52
161971,532,33.84
161986,534,32.55
162001,525,33.84
162016,523,32.87
162031,519,32.87
162046,514,33.19
162061,504,34.16
162076,505,33.84
162091,501,34.16
162106,503,33.52
162121,499,34.16
162136,500,34.16
162151,508,32.55
162166,509,32.55
162181,508,34.16
162196,512,33.19
162211,503,33.84
162226,502,33.84
162241,508,33.84
162256,510,32.23
162271,509,34.16
162286,506,33.19
162301,502,33.84
162316,503,32.55
162331,504,33.84
162346,503,32.55
162361,503,33.84
162376,499,34.16
162391,493,33.84
162406,506,32.55
162421,504,38.03
162436,514,33.52
162451,515,34.16
162466,530,34.48
162481,535,33.84
162496,547,32.55
162511,542,34.48
162526,542,32.55
162541,543,33.52
162556,537,32.23
162571,524,34.16
162586,521,33.19
162601,507,34.16
162616,508,33.84
162631,502,32.87
162646,492,33.84
162661,496,33.52
162676,489,33.84
162691,495,33.84
162706,501,32.87
162721,505,33.19
162736,502,34.16
162751,501,33.84
162766,507,34.16
162781,506,34.16
162796,512,33.52
162811,499,33.84
162826,500,34.16
162841,504,34.16
162856,497,33.84
162871,503,34.16
162886,498,34.16
162901,502,32.55
162916,495,33.84
162931,501,34.48
162946,499,34.16
162961,500,32.87
162976,502,32.55
162991,499,34.16
163006,514,33.84
163021,524,33.52
163037,529,33.84
163052,541,33.19
163067,548,32.87
163082,552,32.23
163097,552,33.52
163112,550,32.55
163128,546,32.55
163143,538,34.48
163158,533,32.55
163173,519,33.84
163188,517,32.87
163203,512,34.16
163219,501,34.16
163235,504,33.52
163250,501,34.16
163266,502,32.87
163281,504,32.87
163297,502,34.16
163313,504,33.52
163328,502,33.84
163344,503,34.16
163360,508,34.16
163376,507,33.52
163392,514,33.19
163408,509,34.16
163424,512,34.16
163439,509,33.84
163455,508,32.87
163471,507,33.84
163487,505,33.84
163503,505,32.87
163518,506,32.55
163534,502,33.52
163549,506,33.84
163565,508,33.19
163581,515,33.84
163597,518,34.16
163613,539,34.16
163629,546,34.48
163645,554,33.84
163661,565,34.16
163677,564,33.84
163692,556,33.84
163708,555,33.19
163724,547,34.16
163739,534,33.52
163755,526,34.16
163771,506,33.19
163787,510,33.84
163803,498,33.84
163819,502,33.84
163834,504,32.23
163850,493,34.16
163866,500,33.84
163881,504,33.19
163897,507,33.19
163912,505,34.16
163928,513,33.19
163944,514,32.55
163959,511,33.84
163975,512,34.48
163991,506,33.84
164006,510,33.52
164022,510,33.52
164037,506,32.87
164053,504,32.87
164069,506,34.16
164084,498,33.52
164099,498,33.84
164114,500,34.48
164129,499,33.84
164144,500,33.52
164160,494,33.84
164175,503,33.84
164190,506,33.52
164205,519,33.84
164221,534,33.84
164236,535,33.84
164252,548,32.87
164268,540,34.16
164283,544,34.48
164299,543,33.84
164314,529,33.52
164329,524,33.84
164344,516,33.84
164359,514,33.19
164374,508,31.90
164390,499,34.16
164405,492,34.16
164420,497,34.16
164435,492,33.84
164450,493,33.84
164465,491,34.16
164480,500,32.87
164495,499,34.16
164510,501,32.55
164525,502,32.87
164540,502,33.84
164555,496,34.16
164570,506,33.84
164585,503,32.87
164600,505,34.16
164615,500,32.23
164630,501,32.55
164645,500,32.87
164660,492,33.84
164675,489,33.52
164690,489,34.16
164705,500,33.84
164720,499,32.55
164735,498,34.16
164750,500,33.84
164765,505,34.80
164780,518,34.16
164795,530,33.19
164810,535,33.84
164825,539,34.16
164840,541,34.48
164855,547,34.16
164870,538,34.80
164885,540,33.19
164900,530,34.16
164915,528,33.52
164930,515,34.16
164945,514,32.87
164960,499,34.16
164975,501,34.16
164990,498,34.48
165005,496,34.16
165020,490,34.16
165035,493,33.84
165050,494,33.19
165065,504,32.87
165080,506,33.52
165095,509,33.19
165110,506,34.16
165125,504,33.52
165140,511,32.55
165155,502,33.84
165170,501,34.16
165185,505,34.16
165200,508,33.84
165215,501,33.52
165230,500,33.84
165245,505,33.84
165260,501,34.16
165275,494,33.52
165290,502,32.23
165305,503,32.55
165320,507,31.90
165335,503,33.84
165350,516,32.87
165365,524,32.87
165380,534,33.84
165395,545,32.87
165410,541,33.84
165425,550,32.55
165440,552,34.16
165455,548,32.87
165470,534,33.52
165485,536,33.84
165500,532,32.23
165515,521,32.87
165530,516,32.55
165545,511,33.84
165560,502,33.84
165575,505,32.23
165590,504,32.87
165605,502,33.19
165620,505,33.84
165635,505,33.52
165650,508,32.87
165665,512,32.23
165680,512,34.16
165695,505,33.84
165710,508,33.84
165725,513,33.19
165740,513,32.55
165755,507,34.48
165770,509,32.23
165785,507,34.16
165800,505,33.52
165815,506,32.55
165830,499,34.16
165845,498,34.16
165860,504,32.55
165875,505,32.87
165890,506,33.84
165905,506,33.84
165920,504,34.16
165935,513,31.90
165950,523,32.55
165965,531,34.16
165980,542,32.55
165995,541,33.84
166010,552,33.19
166025,553,32.87
166040,552,33.52
166055,548,32.55
166070,539,34.16
166085,535,33.52
166100,532,33.52
166115,514,34.16
166130,515,32.87
166145,512,33.19
166160,509,33.52
166175,495,33.52
166190,503,34.16
166205,497,33.84
166220,504,33.84
166235,507,32.87
166250,508,34.16
166265,513,32.87
166280,514,32.87
166295,512,32.87
166310,513,32.55
166325,511,32.55
166340,513,32.87
166355,502,33.84
166370,502,31.90
166385,507,34.16
166400,495,33.84
166415,504,34.16
166430,500,34.16
166445,496,34.48
166460,502,34.16
166475,501,33.84
166490,499,33.84
166505,501,32.55
166520,505,33.52
166535,506,34.16
166550,508,33.84
166565,528,32.55
166580,538,32.55
166595,539,34.16
166610,550,32.55
166625,549,32.87
166640,540,33.84
166655,544,32.55
166670,529,33.84
166685,528,33.52
166700,517,34.16
166715,513,32.55
166730,510,33.19
166745,507,32.55
166760,504,34.16
166775,494,34.48
166790,495,34.48
166805,494,34.16
166820,501,34.16
166835,495,33.52
166850,508,32.87
166865,500,34.16
166880,506,32.87
166895,501,34.48
166910,506,34.16
166925,510,34.16
166940,509,33.19
166955,508,32.55
166970,498,33.52
166985,499,32.87
167000,501,32.87
167015,501,33.84
167030,494,34.16
167045,500,33.52
167060,497,32.87
167075,497,33.84
167090,492,34.16
167105,495,33.84
167120,504,32.55
167135,505,34.16
167150,522,33.84
167165,533,32.87
167180,536,33.52
167195,547,32.87
167210,549,33.19
167225,541,33.52
167240,545,33.19
167255,535,33.52
167270,536,32.87
167285,522,34.16
167300,520,34.48
167315,507,34.16
167330,496,33.84
167345,503,33.19
167360,500,33.84
167375,501,33.84
167390,502,32.55
167405,498,33.84
167420,495,33.52
167435,497,33.84
167450,508,34.16
167465,508,33.52
167480,511,32.55
167495,509,32.23
167510,513,32.87
167525,506,33.84
167540,508,34.16
167555,503,33.52
167570,507,33.52
167585,507,32.55
167600,502,34.16
167615,496,34.16
167630,501,34.16
167645,505,33.52
167660,498,32.87
167675,493,34.16
167690,501,32.23
167705,498,34.16
167720,511,32.55
167735,512,33.84
167750,530,33.52
167765,536,32.87
167780,546,32.23
167795,550,33.84
167810,557,32.23
167825,557,32.87
167840,544,33.84
167855,548,32.87
167870,543,32.87
167885,535,33.19
167900,518,34.16
167915,521,33.84
167930,512,33.84
167945,510,32.55
167960,506,33.52
167975,501,34.16
167990,501,33.84
168005,504,32.55
168020,506,32.87
168035,506,33.84
168050,508,33.19
168065,508,33.84
168080,512,33.84
168095,507,33.19
168110,510,34.48
168125,515,33.52
168140,512,32.55
168155,511,32.87
168170,509,32.87
168185,506,32.87
168200,503,34.16
168215,500,34.16
168230,501,34.16
168245,494,33.84
168260,495,33.84
168275,500,32.23
168290,498,33.84
168305,502,34.16
168320,508,34.16
168335,511,34.80
168350,520,32.87
168365,532,33.19
168380,535,33.84
168395,548,33.84
168410,549,33.84
168425,544,33.84
168440,548,33.52
168455,548,32.87
168470,535,33.19
168485,527,33.84
168500,528,33.84
168515,519,33.19
168530,511,32.55
168545,505,33.84
168560,505,33.52
168575,501,32.23
168590,497,33.84
168605,493,34.16
168620,494,33.84
168635,501,34.80
168650,502,32.23
168665,503,34.16
168680,502,34.16
168695,509,32.23
168710,510,32.87
168725,511,32.55
168740,501,33.84
168755,502,33.19
168770,497,34.16
168785,498,33.84
168800,501,34.16
168815,495,33.84
168830,498,33.84
168845,498,32.55
168860,491,33.84
168875,491,34.16
168890,490,34.16
168905,498,32.23
168920,493,33.52
168935,502,34.16
168950,510,33.19
168965,516,33.84
168980,530,33.84
168995,542,33.84
169010,539,33.52
169025,548,33.52
169040,545,33.84
169055,551,32.55
169070,546,33.84
169085,540,33.52
169100,534,34.16
169115,524,33.84
169130,512,33.52
169145,508,34.16
169160,508,32.87
169175,501,34.16
169190,491,33.52
169205,490,33.52
169220,499,32.23
169235,499,33.84
169250,494,34.16
169265,505,32.87
169280,501,33.52
169295,506,32.55
169310,502,34.16
169325,504,33.84
169340,508,31.90
169355,502,34.16
169370,509,34.16
169385,507,32.55
169400,508,34.16
169415,509,32.87
169430,507,33.84
169445,508,35.13
169460,509,33.84
169475,506,33.84
169490,506,32.23
169505,506,33.84
169520,500,33.84
169535,508,32.87
169550,502,33.84
169565,515,32.87
169580,520,33.52
169595,537,34.16
169610,538,34.48
169625,552,33.84
169640,556,32.87
169655,555,33.84
169670,553,33.84
169685,554,33.19
169700,547,31.90
169715,541,33.52
169730,534,34.48
169745,526,33.84
169760,521,32.87
169775,514,33.84
169790,508,33.19
169805,503,32.55
169820,503,32.55
169835,499,34.16
169850,499,32.55
169865,502,33.19
169880,506,32.23
169895,507,32.87
169910,504,32.55
169925,513,37.71
169940,514,34.16
169955,514,34.16
169970,505,34.16
169985,503,36.42
170000,502,34.16
170015,508,33.84
170030,503,34.16
170045,502,34.48
170060,502,33.84
170075,502,34.16
170090,496,33.52
170105,496,33.84
170120,498,34.16
170135,502,34.16
170150,494,33.84
170165,505,32.55
170180,512,34.16
170195,522,34.16
170210,533,34.16
170225,538,33.52
170240,546,33.19
170255,556,33.52
170270,558,33.52
170285,557,34.16
170300,552,34.16
170315,544,33.84
170330,535,33.84
170345,532,32.23
170360,522,32.55
170375,509,33.52
170390,506,33.84
170405,505,34.16
170420,504,34.16
170435,494,33.84
170450,494,33.52
170465,493,34.16
170480,501,33.84
170495,505,33.84
170510,501,33.52
170525,509,33.52
170540,511,33.84
170555,507,32.55
170570,505,33.84
170585,509,33.84
170600,500,34.16
170615,506,31.90
170630,501,33.84
170645,498,34.16
170660,500,33.52
170675,496,33.84
170690,500,33.52
170705,500,33.84
170720,499,32.55
170735,496,32.55
170750,498,34.16
170765,503,31.90
170780,507,33.84
170795,520,33.84
170810,528,34.48
170825,539,33.84
170840,549,33.84
170855,546,34.16
170870,552,32.55
170885,549,34.16
170900,538,34.16
170915,538,32.87
170930,531,31.90
170945,524,32.55
170960,510,34.16
170975,508,32.55
170990,503,32.23
171005,497,34.16
171020,494,33.84
171035,494,33.19
171050,499,33.52
171065,500,32.23
171080,501,33.84
171095,505,32.23
171110,508,32.87
171125,509,32.55
171140,501,33.84
171155,509,33.19
171170,511,34.16
171185,505,34.16
171200,508,34.16
171215,509,32.23
171230,506,32.55
171245,506,33.84
171260,503,34.48
171275,495,34.16
171290,497,33.84
171305,493,33.84
171320,502,33.84
171335,499,32.55
171350,499,34.16
171365,506,33.52
171380,514,32.55
171395,523,32.55
171410,535,33.84
171425,545,34.16
171440,557,32.55
171455,557,34.16
171470,562,32.55
171485,560,33.84
171500,551,33.84
171515,550,33.19
171530,535,33.84
171545,534,32.55
171560,524,33.84
171575,519,32.55
171590,513,33.52
171605,508,33.84
171620,505,32.87
171635,500,33.84
171650,503,32.55
171665,504,32.55
171680,497,34.16
171695,502,33.52
171710,511,34.16
171725,512,32.87
171740,510,33.84
171755,511,34.16
171770,514,33.52
171785,512,34.16
171800,505,34.16
171815,503,33.52
171830,507,34.16
171845,499,33.84
171860,505,33.19
171875,503,33.84
171890,498,34.16
171905,498,33.84
171920,500,34.16
171935,493,34.16
171950,502,33.84
171965,500,33.52
171980,509,33.84
171995,521,34.48
172010,540,32.87
172025,542,33.84
172040,555,33.84
172055,562,34.16
172070,557,34.16
172085,560,32.55
172100,557,33.84
172115,548,32.55
172130,536,33.84
172145,530,34.16
172160,528,33.84
172175,509,33.84
172190,513,33.52
172205,499,33.84
172220,503,34.16
172235,493,33.52
172250,493,33.84
172265,502,33.52
172280,503,34.16
172295,496,34.48
172310,506,34.16
172325,512,32.23
172340,510,32.55
172355,512,33.84
172370,515,32.55
172385,509,34.16
172400,507,33.84
172415,509,32.23
172430,499,34.16
172445,504,33.84
172460,500,34.16
172475,495,34.16
172490,499,32.87
172505,497,33.19
172520,496,33.84
172535,495,33.84
172550,499,32.55
172565,500,33.84
172580,503,34.16
172595,513,33.84
172610,529,33.19
172625,539,33.84
172640,548,33.84
172655,555,32.55
172670,547,33.84
172685,544,33.84
172700,548,34.16
172715,536,34.16
172730,533,32.87
172745,524,32.23
172760,516,32.23
172775,510,33.19
172790,497,33.52
172805,499,33.52
172820,495,32.23
172835,489,33.52
172850,487,34.16
172865,497,33.19
172880,498,32.87
172895,501,33.52
172910,505,32.23
172925,506,34.16
172940,504,34.16
172955,501,33.84
172970,502,33.84
172985,505,33.52
173000,504,33.52
173015,502,32.23
173030,496,34.16
173045,501,32.55
173060,490,33.84
173075,498,32.87
173090,497,32.87
173105,492,34.16
173120,498,33.52
173135,501,33.84
173150,504,32.55
173165,511,32.87
173180,518,33.84
173195,516,33.52
173210,538,34.16
173225,538,33.19
173240,547,34.16
173255,547,33.84
173270,553,32.55
173285,548,32.55
173300,544,32.23
173315,529,33.84
173330,532,33.52
173345,522,33.19
173360,513,32.55
173375,502,33.52
173390,505,33.19
173405,493,33.84
173420,493,33.52
173435,490,34.16
173450,497,34.16
173465,493,34.48
173480,500,33.19
173495,501,33.52
173510,505,33.84
173525,501,34.16
173540,507,34.16
173555,499,33.19
173570,507,33.84
173585,498,34.16
173600,508,34.16
173615,500,33.52
173630,500,34.16
173645,505,32.55
173660,507,33.84
173675,502,34.16
173690,502,33.84
173705,501,33.84
173720,503,33.19
173735,502,33.52
173750,510,32.87
173765,521,32.55
173780,529,34.16
173795,544,33.19
173810,547,33.84
173825,554,34.48
173840,560,32.87
173856,549,33.84
173871,553,32.87
173886,544,32.55
173901,532,33.84
173916,530,32.23
173931,518,34.16
173946,514,34.16
173961,507,34.16
173977,496,33.52
173992,502,32.87
174007,498,32.23
174022,493,33.84
174037,494,34.16
174052,502,33.19
174068,503,33.19
174084,508,33.19
174099,509,34.48
174115,507,32.87
174130,510,31.90
174146,506,34.16
174162,509,34.16
174177,507,32.55
174193,499,34.16
174209,503,32.23
174224,503,34.80
174240,502,32.87
174255,502,32.87
174271,495,34.16
174287,491,33.84
174302,499,32.23
174318,500,33.84
174334,499,34.16
174349,514,34.16
174365,527,33.19
174380,527,33.52
174396,535,34.16
174412,549,34.16
174428,546,33.52
174444,545,33.84
174460,546,33.19
174476,536,34.16
174492,522,34.16
174508,520,32.87
174524,510,33.84
174540,506,32.87
174556,499,34.48
174572,488,33.84
174587,490,33.84
174603,496,32.87
174619,496,33.52
174635,493,34.16
174651,494,34.16
174667,501,34.16
174683,501,32.23
174699,504,32.23
174715,503,32.87
174731,505,32.87
174747,497,33.84
174763,503,33.84
174779,500,33.84
174795,505,33.19
174811,498,34.16
174827,499,32.87
174843,496,33.84
174859,495,33.19
174875,499,32.87
174891,499,32.23
174907,501,32.87
174923,506,33.84
174939,524,32.55
174954,531,34.16
174970,535,33.84
174985,548,33.19
175001,550,34.16
175017,550,33.84
175032,549,33.84
175048,536,33.84
175064,523,34.16
175079,520,34.16
175095,509,33.84
175110,505,34.16
175126,501,33.19
175142,497,32.55
175157,491,33.84
175173,499,32.87
175188,498,32.23
175204,498,34.16
175220,500,33.84
175235,497,34.16
175251,508,32.55
175266,502,33.84
175282,510,33.84
175298,508,32.87
175313,510,33.84
175329,509,33.19
175344,506,32.55
175359,505,33.19
175374,504,34.16
175390,503,32.23
175405,500,32.55
175420,498,34.48
175435,496,34.16
175450,491,33.84
175465,497,34.16
175480,502,34.16
175495,510,34.16
175510,525,34.16
175525,535,34.16
175540,545,34.16
175555,554,34.16
175571,558,34.16
175586,559,32.87
175601,555,32.55
175616,547,33.52
175631,536,34.16
175646,527,34.16
175661,517,34.16
175676,513,34.16
175691,507,34.16
175706,504,33.84
175721,502,32.23
175736,500,34.16
175751,498,32.55
175766,493,33.84
175781,493,33.84
175796,503,32.55
175811,503,33.84
175826,507,34.16
175841,510,32.55
175856,509,32.55
175871,508,34.16
175886,507,33.84
175901,508,32.55
175916,509,33.84
175931,498,33.52
175946,497,34.16
175961,497,33.84
175976,501,33.52
175991,501,33.52
176006,494,33.84
176021,501,33.52
176036,495,34.16
176051,501,33.84
176066,514,32.55
176081,520,34.16
176096,535,32.87
176111,547,33.84
176126,552,33.52
176141,552,34.16
176156,551,33.52
176171,553,32.87
176186,546,32.87
176201,533,34.16
176216,520,33.52
176231,517,32.55
176246,509,32.87
176261,497,33.52
176276,489,33.84
176291,493,33.84
176306,486,33.84
176321,486,34.16
176336,485,33.84
176351,489,34.16
176366,496,33.84
176382,498,33.84
176397,503,35.13
176412,501,33.84
176427,500,33.84
176442,506,32.87
176457,503,31.90
176472,498,34.16
176487,504,33.19
176503,499,32.23
176518,497,33.84
176533,493,33.84
176548,489,33.52
176563,489,34.16
176578,496,32.87
176594,489,34.48
176610,497,32.55
176625,503,32.55
176641,508,33.84
176656,513,33.84
176672,532,32.87
176688,538,32.55
176703,547,32.87
176719,549,33.19
176735,544,34.16
176750,542,32.23
176766,536,32.87
176781,530,32.55
176797,519,32.55
176813,513,33.52
176828,498,33.84
176844,497,34.16
176860,495,33.84
176875,485,33.19
176891,494,34.16
176906,493,32.55
176922,490,33.84
176938,504,33.84
176954,498,34.16
176970,508,33.84
176986,505,33.84
177002,503,33.84
177018,502,34.16
177034,499,33.84
177050,496,33.84
177066,503,34.16
177082,503,32.55
177098,502,32.55
177114,493,33.84
177130,503,32.23
177146,500,32.87
177162,495,33.84
177178,504,33.52
177194,506,34.16
177210,521,33.84
177226,525,33.84
177242,536,33.84
177258,544,34.16
177273,546,34.16
177289,552,31.90
177305,552,32.87
177321,546,32.55
177337,539,32.87
177353,529,34.16
177368,525,33.52
177384,509,33.84
177400,509,33.84
177415,501,33.19
177431,499,33.84
177446,494,33.52
177462,490,33.84
177478,498,32.23
177493,501,32.23
177509,503,32.55
177524,505,32.55
177540,509,33.19
177556,510,33.52
177571,510,32.87
177587,510,33.84
177602,509,32.55
177618,507,33.84
177634,498,33.84
177649,505,32.23
177665,500,32.55
177680,492,33.84
177696,497,32.23
177712,494,34.16
177727,494,33.84
177743,494,33.52
177758,494,34.16
177773,510,32.55
177788,514,34.16
177803,531,32.23
177818,536,34.80
177833,545,34.16
177848,549,32.55
177864,543,33.84
177879,545,33.84
177894,535,34.16
177909,524,33.84
177924,520,33.84
177939,515,33.52
177954,505,33.52
177969,494,34.16
177984,497,32.55
177999,493,33.84
178015,491,32.87
178030,489,33.52
178045,492,32.87
178060,490,33.84
178075,504,34.16
178090,505,32.55
178105,505,32.55
178120,508,33.84
178135,501,33.52
178150,512,33.84
178165,500,33.52
178180,503,33.84
178195,503,33.19
178210,493,34.16
178225,499,32.23
178240,499,33.52
178255,499,33.84
178270,497,33.84
178285,492,33.19
178300,498,34.16
178315,502,33.52
178330,504,34.48
178345,514,34.16
178360,516,33.52
178375,534,34.80
178390,542,33.84
178405,550,32.55
178420,554,32.55
178435,552,32.55
178450,549,34.48
178465,535,34.48
178480,529,33.84
178495,528,32.23
178510,525,32.55
178525,508,34.16
178540,505,33.84
178555,506,32.87
178570,503,32.23
178585,499,32.87
178600,499,32.55
178615,492,34.16
178630,494,33.84
178645,502,33.19
178660,507,32.23
178675,507,34.16
178690,510,32.55
178705,509,32.87
178720,507,34.16
178736,510,31.90
178751,503,33.84
178766,502,33.84
178781,498,33.84
178796,508,32.87
178811,502,32.87
178826,494,33.84
178841,495,33.19
178856,488,33.84
178871,496,34.16
178886,491,33.84
178901,499,33.84
178917,504,34.16
178932,509,33.84
178947,529,34.48
178962,528,33.84
178977,545,33.52
178992,553,32.23
179007,551,33.84
179022,551,32.87
179038,545,34.16
179054,535,33.84
179069,528,31.90
179085,517,34.16
179100,507,33.84
179116,507,33.84
179132,494,33.84
179147,495,33.84
179163,496,34.16
179179,491,34.16
179195,501,33.52
179211,499,32.87
179227,498,32.87
179242,500,33.52
179258,506,33.84
179274,506,33.52
179289,507,32.55
179305,507,33.84
179321,506,32.87
179337,504,32.55
179353,497,33.84
179369,502,32.87
179385,498,34.16
179401,497,33.84
179417,488,33.84
179433,491,33.84
179449,497,32.87
179465,495,33.19
179481,496,33.52
179497,497,32.55
179513,500,34.16
179529,503,34.16
179545,516,33.84
179561,523,34.16
179577,541,33.52
179593,539,34.16
179609,546,32.23
179625,541,32.87
179641,535,32.87
179657,522,33.19
179673,526,34.16
179689,514,32.55
179705,505,34.16
179721,497,32.87
179737,495,34.16
179753,486,33.19
179769,491,33.52
179785,490,33.84
179801,496,32.23
179816,496,34.16
179832,500,34.16
179848,506,33.52
179864,504,33.84
179880,499,33.84
179896,508,34.16
179911,509,32.55
179927,498,33.84
179943,505,32.87
179958,497,34.16
179974,504,32.87
179989,502,33.84
180005,503,32.23
180021,494,33.84
180036,500,33.52
180052,492,34.16
180067,492,33.52
180083,500,33.52
180098,504,32.23
180114,507,34.16
180130,517,34.16
180145,525,33.84
180161,539,34.16
180177,541,33.84
180192,552,32.23
180208,553,32.55
180223,540,33.84
180239,541,32.55
180254,533,33.84
180269,528,32.87
180284,519,33.84
180299,511,33.52
180314,506,34.48
180329,498,33.84
180344,497,34.16
180359,492,34.16
180374,489,33.52
180390,493,34.16
180405,504,33.52
180420,502,32.55
180435,505,33.52
180450,508,31.90
180465,507,34.48
180480,509,32.87
180495,504,33.52
180510,508,33.84
180525,503,34.48
180540,506,34.16
180555,506,33.84
180571,503,33.84
180586,502,33.52
180601,494,33.84
180616,500,32.23
180631,494,33.84
180646,496,34.16
180661,496,32.87
180676,498,34.48
180691,506,34.16
180706,506,33.84
180721,516,34.16
180736,518,33.84
180751,537,34.16
180766,544,32.87
180781,538,33.84
180796,540,33.84
180811,539,33.52
180826,540,32.87
180841,531,33.84
180856,521,34.16
180871,516,34.16
180886,508,34.16
180901,495,33.84
180916,497,33.84
180931,495,32.55
180946,494,32.55
180961,489,34.16
180976,493,33.19
180991,488,33.84
181006,499,34.16
181021,493,34.16
181036,493,33.84
181051,502,32.55
181066,505,33.84
181081,504,34.16
181096,501,33.84
181111,500,34.16
181126,491,33.84
181141,492,33.52
181156,497,32.87
181171,496,32.23
181186,493,33.84
181201,487,33.84
181216,494,32.55
181231,493,34.48
181246,489,34.16
181261,483,33.52
181276,495,32.55
181291,497,33.84
181306,505,34.16
181321,520,32.87
181336,532,34.16
181351,531,34.48
181366,545,32.23
181381,542,34.16
181396,546,34.16
181411,538,32.87
181426,535,32.23
181441,528,34.16
181456,515,34.48
181471,513,34.16
181486,508,32.55
181501,500,33.84
181516,496,34.16
181531,496,33.84
181546,487,33.52
181561,496,33.84
181576,491,33.84
181591,495,34.16
181606,499,32.55
181621,500,34.16
181636,502,34.16
181651,498,34.16
181666,506,34.16
181681,502,34.16
181696,497,33.84
181711,497,33.52
181726,501,34.16
181741,500,34.16
181756,502,32.55
181771,501,33.84
181786,493,33.84
181801,493,34.16
181816,501,32.55
181831,495,34.16
181846,494,33.84
181861,499,34.16
181876,500,33.52
181891,507,33.84
181906,523,33.19
181921,528,33.84
181936,539,32.87
181951,548,34.16
181966,546,33.52
181981,549,33.84
181996,549,34.16
182011,546,34.16
182026,539,33.52
182041,530,32.55
182056,518,34.16
182071,509,33.84
182086,509,33.52
182101,506,33.19
182116,501,33.84
182131,498,32.55
182146,498,33.84
182161,498,33.52
182176,500,34.48
182191,501,33.52
182206,505,33.19
182221,501,33.84
182236,500,33.84
182251,506,34.16
182266,505,34.16
182281,507,34.48
182296,510,32.55
182311,498,33.84
182326,503,33.84
182341,506,33.84
182356,503,34.16
182371,503,32.87
182386,503,32.55
182401,492,33.19
182416,492,33.84
182431,503,32.23
182446,498,33.52
182461,503,32.55
182476,507,33.19
182491,513,34.16
182506,521,32.55
182521,531,34.16
182536,541,33.52
182551,548,32.55
182566,551,33.84
182581,547,34.48
182596,550,32.87
182611,536,33.84
182626,537,32.87
182641,525,34.48
182656,519,33.19
182671,507,33.52
182686,506,32.23
182701,497,34.16
182717,490,33.52
182732,489,33.84
182747,487,33.84
182762,496,32.87
182777,492,34.16
182792,500,33.19
182807,504,33.19
182822,498,33.84
182837,506,33.52
182852,510,32.87
182868,499,33.84
182883,505,32.87
182898,499,33.84
182913,504,32.87
182928,501,33.19
182943,494,34.16
182958,499,34.16
182973,494,33.84
182988,499,34.16
183003,498,33.84
183018,497,32.87
183033,489,34.80
183048,498,32.55
183063,497,33.19
183078,508,33.84
183093,515,33.19
183108,527,33.84
183123,537,33.52
183138,542,32.87
183153,549,33.19
183168,549,32.87
183183,545,32.87
183198,538,33.52
183213,536,33.19
183228,528,32.23
183243,523,32.23
183258,514,34.16
183273,503,32.23
183288,495,33.52
183303,500,34.16
183318,488,33.84
183333,494,33.84
183348,496,34.16
183363,501,33.84
183378,503,32.55
183393,505,32.55
183408,503,34.16
183423,501,33.52
183438,512,32.55
183453,501,34.16
183468,509,34.16
183483,502,34.16
183498,502,34.16
183513,505,33.84
183528,497,34.16
183543,502,32.23
183558,502,32.23
183573,500,34.48
183588,501,32.23
183603,496,33.52
183618,497,34.16
183633,500,33.52
183648,500,34.48
183663,503,34.16
183678,516,33.52
183693,520,34.48
183708,538,33.84
183723,545,32.87
183738,550,32.55
183753,553,33.84
183768,552,34.16
183783,549,32.23
183798,541,34.16
183813,539,32.55
183828,530,34.16
183843,523,32.23
183858,515,32.87
183873,510,33.52
183888,506,33.52
183903,503,32.55
183918,495,33.52
183933,499,33.84
183948,503,32.23
183963,503,32.87
183978,498,33.84
183993,503,33.84
184008,511,33.84
184023,514,32.23
184038,506,34.16
184053,510,33.84
184068,502,34.16
184083,502,33.84
184098,508,32.55
184113,506,33.84
184128,499,33.84
184143,498,34.16
184158,501,34.16
184173,502,33.52
184188,497,33.52
184203,504,33.19
184218,500,33.84
184233,498,33.84
184248,501,33.84
184263,515,34.16
184278,526,32.87
184293,530,33.19
184308,539,33.84
184323,552,34.16
184338,549,33.84
184353,554,33.52
184368,545,34.16
184383,544,31.90
184398,540,33.19
184413,529,32.55
184428,513,33.84
184443,515,32.55
184458,506,33.52
184473,501,34.16
184488,496,33.19
184503,498,33.84
184518,497,34.16
184533,502,32.23
184548,499,33.84
184563,503,34.16
184578,506,32.23
184593,510,32.87
184608,502,33.52
184623,504,33.52
184638,506,32.87
184653,505,34.16
184668,507,34.16
184683,506,34.16
184698,500,34.16
184713,497,34.16
184728,501,33.52
184743,492,33.84
184758,498,32.87
184773,493,34.16
184788,497,34.16
184804,490,33.52
184819,500,33.84
184834,503,33.52
184849,512,33.52
184864,531,33.19
184879,539,32.55
184895,547,32.87
184910,543,34.16
184925,548,33.52
184940,548,34.16
184955,543,34.16
184970,535,32.23
184986,528,32.55
185001,519,33.84
185017,508,33.84
185033,505,34.16
185048,494,33.84
185064,492,33.52
185080,498,33.84
185095,497,32.23
185111,500,34.48
185126,496,33.84
185142,506,34.16
185158,510,34.16
185173,506,34.16
185189,513,33.19
185205,506,34.80
185220,509,33.19
185236,502,33.84
185251,502,33.52
185267,508,33.52
185283,503,33.52
185298,497,33.84
185314,496,34.48
185330,504,32.87
185346,504,32.55
185362,502,32.55
185378,498,33.84
185393,510,32.87
185409,514,33.84
185425,517,34.16
185441,537,33.84
185457,545,33.84
185473,554,32.55
185489,558,32.87
185505,557,33.84
185521,556,32.87
185537,546,33.84
185553,540,32.55
185569,532,33.52
185584,526,33.52
185600,516,32.87
185616,514,33.52
185631,512,32.55
185647,506,32.55
185663,503,34.48
185678,501,34.16
185694,495,33.52
185709,503,33.84
185725,497,33.84
185741,500,33.84
185756,504,33.84
185772,508,32.23
185787,506,32.55
185803,510,34.48
185819,510,32.87
185834,507,32.23
185850,506,33.84
185865,505,32.55
185881,504,32.87
185897,499,33.84
185912,497,33.52
185928,503,33.84
185944,503,32.87
185959,505,32.23
185975,509,34.16
185990,522,32.23
186006,528,34.16
186022,543,34.48
186037,551,32.87
186053,555,32.23
186068,552,33.84
186083,547,34.16
186098,541,33.84
186114,540,32.87
186129,534,34.16
186144,519,33.84
186159,513,34.16
186174,509,34.16
186189,508,34.16
186204,504,31.90
186219,503,33.19
186234,502,32.87
186249,500,33.19
186265,495,33.84
186280,498,33.84
186295,504,34.16
186310,506,33.84
186325,507,33.52
186340,513,33.84
186355,508,34.48
186370,513,33.52
186385,510,32.23
186400,509,34.16
186415,509,33.84
186430,505,33.52
186445,506,34.16
186460,504,31.90
186475,494,34.16
186490,504,32.55
186505,502,34.16
186520,502,33.52
186535,509,32.87
186550,508,33.84
186565,522,34.16
186580,538,32.55
186595,550,32.55
186610,555,34.16
186625,560,32.23
186640,555,32.55
186655,556,32.87
186670,541,33.84
186685,541,32.87
186700,528,34.16
186715,520,33.19
186730,511,33.84
186745,505,33.52
186760,509,32.55
186775,504,32.55
186790,498,33.84
186805,503,32.87
186820,499,33.84
186835,500,33.52
186850,508,32.87
186865,509,32.87
186880,510,34.16
186895,512,33.84
186910,508,33.84
186925,512,32.87
186940,512,32.87
186955,502,33.84
186970,508,34.16
186985,506,34.16
187000,507,32.55
187015,506,32.55
187030,498,33.52
187045,495,33.52
187060,495,34.16
187075,498,33.84
187090,510,32.87
187105,514,32.55
187120,519,34.48
187135,532,33.84
187150,543,34.16
187165,552,33.19
187180,555,33.84
187195,553,34.16
187210,555,32.55
187225,555,32.55
187240,545,31.90
187255,541,34.16
187270,532,33.84
187285,519,33.84
187300,511,33.84
187315,513,32.23
187330,507,33.84
187345,505,32.55
187360,503,33.52
187375,500,34.16
187390,495,33.84
187405,505,32.55
187420,500,33.84
187435,505,33.52
187451,511,33.84
187466,508,33.84
187481,515,32.55
187496,510,33.84
187511,508,34.16
187526,513,33.52
187542,503,33.84
187557,502,34.16
187572,497,33.84
187587,498,33.52
187602,502,34.16
187617,492,33.52
187633,498,34.16
187649,504,34.16
187664,509,33.84
187680,518,33.84
187696,522,34.16
187711,535,32.55
187727,544,34.16
187742,549,32.55
187758,548,32.87
187774,544,33.19
187790,533,33.84
187806,526,34.16
187822,521,33.19
187837,506,34.16
187853,498,34.48
187869,494,33.84
187885,495,33.52
187901,493,33.19
187917,491,34.16
187933,494,32.55
187949,487,33.52
187965,499,34.16
187980,499,33.84
187996,497,34.16
188012,504,32.87
188028,506,33.84
188044,508,32.55
188060,498,33.84
188076,500,34.16
188092,506,32.87
188108,503,33.52
188123,502,33.84
188139,500,33.52
188155,495,32.55
188170,501,33.84
188186,502,33.19
188202,498,33.52
188217,514,34.16
188233,527,32.55
188249,534,33.84
188265,545,34.16
188281,556,33.84
188297,551,34.16
188312,553,33.84
188328,549,32.87
188343,545,33.84
188359,528,33.84
188375,522,33.84
188390,522,34.16
188406,516,33.84
188421,506,32.55
188437,502,32.23
188453,491,33.52
188468,502,32.55
188484,495,33.52
188499,504,32.87
188515,500,33.84
188531,511,31.90
188546,509,32.55
188562,503,33.84
188577,511,33.84
188592,511,34.16
188608,503,33.84
188623,503,34.16
188639,504,34.48
188654,500,34.16
188670,494,33.84
188685,503,34.16
188700,501,32.55
188715,503,32.23
188730,505,33.84
188745,505,32.87
188760,508,34.16
188775,518,33.19
188790,527,33.19
188805,538,34.16
188821,545,32.55
188836,542,33.52
188851,550,34.16
188866,552,32.55
188881,545,32.55
188896,537,34.16
188911,533,33.52
188926,528,32.55
188941,515,33.84
188956,516,34.16
188971,508,34.16
188986,505,33.52
189001,502,33.84
189016,499,32.23
189031,495,33.84
189046,503,32.87
189061,502,33.84
189076,501,32.55
189091,506,34.48
189106,510,34.16
189121,503,34.16
189136,501,33.84
189151,501,34.16
189166,506,34.16
189181,504,34.16
189196,502,34.16
189211,504,33.19
189226,500,32.87
189241,493,33.52
189256,500,32.55
189271,499,31.90
189286,489,34.16
189301,492,33.84
189316,495,33.84
189331,509,33.84
189346,511,33.84
189361,518,34.16
189376,527,34.16
189391,543,34.16
189406,548,34.16
189421,548,32.87
189436,537,33.84
189451,538,34.48
189466,533,32.87
189481,527,32.87
189496,515,33.52
189511,508,32.87
189526,504,32.87
189541,493,33.52
189556,493,32.87
189571,491,33.84
189586,492,34.16
189601,493,31.90
189616,494,33.52
189631,495,34.16
189646,495,33.84
189661,500,34.16
189676,501,33.84
189691,497,33.84
189706,497,33.84
189721,502,33.52
189736,502,32.55
189751,502,32.55
189766,503,33.84
189781,503,33.19
189796,500,33.19
189811,489,34.16
189826,497,33.52
189841,497,32.23
189856,496,33.52
189871,495,34.16
189887,507,33.84
189902,509,33.84
189917,524,34.16
189932,531,32.87
189947,533,34.16
189962,540,34.16
189977,541,34.16
189992,547,33.19
190007,538,33.84
190022,536,34.48
190037,529,32.55
190052,511,33.84
190067,512,33.84
190082,509,34.48
190097,494,32.23
190112,489,33.84
190128,493,32.55
190143,494,32.55
190158,486,33.52
190173,500,33.52
190188,494,34.16
190203,495,33.84
190219,501,34.16
190235,500,33.84
190250,501,34.16
190266,511,34.16
190281,506,34.16
190297,500,34.16
190313,505,34.16
190328,503,32.87
190344,501,32.23
190360,500,33.84
190375,502,32.23
190391,498,34.48
190406,498,32.87
190422,502,32.55
190438,504,33.52
190454,512,34.16
190470,521,32.87
190486,534,32.55
190501,537,34.16
190517,549,32.55
190532,550,33.84
190548,551,33.84
190564,546,33.84
190580,545,34.16
190596,539,34.16
190612,522,32.87
190628,521,32.23
190644,505,33.52
190660,500,33.84
190676,501,34.16
190692,492,33.84
190708,498,33.84
190724,492,33.84
190740,495,34.16
190756,502,33.19
190772,496,33.84
190788,500,33.52
190803,508,33.84
190819,509,33.84
190834,509,31.90
190850,506,34.16
190866,508,33.52
190881,500,34.16
190897,499,34.16
190912,503,32.55
190928,500,34.48
190944,493,34.16
190959,495,34.16
190975,495,33.84
190991,496,33.84
191006,503,34.16
191022,509,33.84
191037,515,32.87
191053,527,33.52
191069,536,34.16
191084,543,34.16
191100,549,33.84
191115,550,34.16
191131,549,32.87
191147,544,34.16
191162,540,33.84
191178,536,33.19
191193,521,33.52
191208,518,33.84
191223,515,32.87
191239,508,32.23
191255,495,34.16
191270,495,33.84
191286,494,34.48
191301,499,32.55
191316,501,33.84
191331,500,32.87
191346,503,32.87
191361,504,33.84
191377,507,32.87
191392,508,33.84
191407,499,33.52
191422,507,33.84
191437,505,32.87
191452,505,33.52
191467,499,33.84
191482,502,34.48
191497,504,34.16
191512,503,33.19
191527,494,34.16
191542,500,33.84
191557,492,33.84
191572,504,33.84
191587,494,33.84
191602,510,32.55
191617,511,33.84
191632,524,34.16
191647,525,34.16
191662,533,34.16
191677,541,33.52
191692,545,31.90
191707,543,34.16
191722,539,33.19
191737,534,34.16
191752,528,32.23
191767,508,33.84
191782,509,33.52
191797,500,33.84
191812,490,33.84
191827,480,33.19
191842,490,32.55
191857,483,33.84
191872,490,33.84
191887,496,32.23
191902,490,33.19
191917,500,33.84
191932,502,34.16
191947,499,34.16
191962,506,32.87
191977,503,34.48
191992,503,33.84
192007,497,34.16
192022,505,33.52
192037,500,32.23
192052,497,33.52
192067,500,33.19
192082,498,33.84
192097,494,33.84
192112,492,33.84
192127,491,33.84
192142,499,32.55
192157,498,34.48
192172,501,34.48
192187,515,33.84
192202,519,33.84
192217,532,32.87
192232,539,33.84
192247,545,32.87
192262,539,33.84
192277,546,33.52
192292,536,33.52
192307,532,34.16
192322,536,33.84
192337,527,34.16
192352,522,33.84
192367,508,33.52
192382,509,32.87
192397,502,34.16
192412,499,32.87
192427,498,33.19
192442,498,32.87
192457,500,33.19
192472,501,34.16
192487,504,32.55
192502,503,34.16
192517,509,32.55
192532,508,33.84
192547,510,32.87
192562,512,32.87
192577,507,34.16
192593,500,33.84
192608,505,33.84
192623,506,34.16
192638,505,32.23
192653,496,34.48
192668,503,32.23
192683,496,33.19
192698,504,32.55
192714,497,34.16
192729,504,33.84
192744,508,33.52
192759,507,34.16
192775,523,34.16
192791,529,33.84
192806,535,33.52
192822,547,32.55
192837,548,34.16
192852,546,32.87
192867,540,33.84
192883,531,33.84
192899,523,33.84
192914,522,34.48
192930,515,33.84
192946,509,33.19
192961,505,32.87
192977,498,33.52
192992,497,33.84
193008,487,33.84
193024,490,33.84
193039,494,34.16
193055,494,34.16
193071,503,32.87
193086,505,33.19
193102,498,33.84
193118,503,33.84
193134,507,34.16
193150,505,33.52
193166,499,33.84
193181,504,33.84
193197,500,33.52
193213,493,33.19
193229,498,32.87
193245,495,33.84
193260,495,33.84
193276,494,32.55
193291,498,32.55
193307,494,34.80
193323,503,34.16
193339,514,33.19
193355,524,32.55
193371,534,33.52
193387,536,34.16
193402,541,34.48
193418,541,32.55
193433,538,34.16
193449,533,33.19
193465,518,34.16
193480,514,34.48
193496,510,34.80
193511,501,32.55
193527,487,34.16
193543,492,34.16
193558,489,33.84
193574,491,32.23
193589,488,34.16
193605,491,33.84
193621,498,34.16
193636,493,33.84
193652,504,34.16
193667,508,33.52
193683,498,33.52
193699,505,33.84
193714,505,33.84
193730,498,33.84
193745,502,33.84
193760,501,34.16
193776,505,32.55
193791,506,33.84
193807,501,34.16
193822,500,33.84
193837,499,33.84
193852,493,34.16
193867,501,32.23
193882,506,34.16
193898,515,33.84
193913,517,33.84
193928,527,33.84
193943,534,34.16
193958,543,33.84
193973,551,32.23
193989,543,33.52
194004,547,33.84
194019,537,33.52
194034,536,33.84
194049,531,32.23
194064,522,32.23
194079,507,33.84
194094,503,33.84
194109,508,33.84
194124,502,33.84
194139,501,34.16
194154,496,33.84
194170,502,32.23
194185,503,34.16
194200,507,34.16
194215,510,34.48
194230,511,34.16
194245,511,34.16
194260,512,33.84
194275,513,32.55
194290,511,33.52
194305,498,33.84
194320,501,33.84
194335,506,34.16
194350,499,33.84
194365,503,32.55
194380,501,34.16
194395,495,33.84
194410,494,34.16
194425,502,32.55
194440,504,33.19
194455,503,34.16
194470,519,33.84
194485,525,34.16
194500,539,33.19
194515,544,33.84
194530,550,33.84
194545,552,32.55
194560,550,34.80
194575,546,32.55
194590,541,33.52
194605,534,32.55
194620,528,33.52
194635,523,32.23
194650,512,34.16
194665,503,34.16
194680,499,34.16
194695,500,34.16
194710,502,32.87
194725,500,32.87
194740,499,33.84
194755,497,34.16
194770,506,32.23
194785,510,33.84
194800,509,34.16
194815,514,32.55
194830,508,33.84
194845,509,33.52
194860,513,33.19
194875,514,32.87
194890,507,33.84
194905,508,32.87
194920,508,33.52
194935,496,33.84
194950,505,34.16
194965,504,33.84
194980,498,34.80
194995,500,33.52
195010,503,33.84
195025,507,32.23
195040,514,33.84
195055,526,33.84
195070,536,32.23
195085,547,32.87
195100,552,32.23
195115,547,33.19
195130,548,33.84
195145,543,33.84
195160,541,33.52
195175,534,33.84
195190,528,34.16
195205,526,34.48
195220,522,33.19
195235,515,33.19
195250,511,32.55
195265,502,33.84
195280,506,32.55
195295,500,34.48
195310,500,34.16
195325,500,34.48
195340,509,32.87
195355,508,33.84
195370,504,33.84
195385,515,32.87
195400,514,33.52
195415,514,32.87
195430,502,33.84
195445,506,33.84
195460,503,33.84
195475,498,34.16
195490,499,33.84
195505,502,34.16
195520,503,32.55
195535,499,34.48
195550,504,33.84
195565,502,33.84
195580,496,33.84
195595,500,33.52
195610,505,34.16
195625,515,32.23
195640,523,32.87
195655,532,32.23
195670,535,34.16
195685,546,34.48
195700,548,34.16
195715,548,33.52
195730,540,33.84
195745,534,34.16
195760,530,34.48
195775,522,33.84
195790,518,32.23
195805,502,33.84
195820,491,34.16
195835,497,32.87
195850,496,32.55
195865,494,32.87
195880,498,33.84
195895,493,33.52
195910,504,32.87
195925,504,33.19
195940,507,32.23
195955,501,33.52
195970,509,32.87
195985,501,33.84
196000,507,32.87
196015,502,33.84
196030,505,33.84
196045,508,33.19
196060,500,34.80
196075,503,34.16
196090,505,32.55
196105,500,34.16
196120,501,32.55
196135,496,33.52
196150,497,34.16
196165,503,32.87
196180,507,34.16
196195,507,33.52
196210,525,33.84
196225,530,33.84
196240,549,32.23
196255,545,33.84
196270,556,33.84
196285,556,32.23
196300,550,34.48
196315,545,34.16
196330,537,32.23
196345,528,33.52
196360,516,33.84
196375,514,32.55
196390,505,33.84
196405,503,32.55
196420,496,33.19
196435,491,34.16
196450,498,32.87
196465,497,33.52
196480,502,32.87
196495,505,33.52
196510,508,32.87
196525,507,34.16
196540,511,34.48
196555,513,34.16
196570,512,34.48
196585,514,32.87
196600,511,33.19
196615,510,33.19
196630,508,33.19
196645,505,33.84
196660,506,32.87
196675,496,33.84
196690,495,34.16
196705,494,33.84
196720,502,33.84
196735,503,33.84
196750,506,32.87
196765,504,33.84
196780,515,33.84
196795,527,32.87
196810,538,34.16
196825,545,34.16
196840,551,32.87
196855,550,32.87
196870,550,33.84
196885,549,32.55
196900,541,34.48
196915,536,33.52
196930,521,33.52
196945,522,32.87
196960,515,34.16
196975,500,33.84
196990,504,33.52
197005,501,34.16
197020,486,34.16
197035,496,33.84
197050,497,33.84
197065,500,33.84
197080,501,33.84
197095,501,33.84
197110,497,33.52
197125,501,33.84
197140,507,34.48
197155,504,33.84
197170,507,34.16
197185,499,34.16
197200,505,33.52
197215,506,34.16
197230,504,32.23
197245,497,34.16
197260,501,33.19
197275,500,32.87
197290,499,32.55
197305,498,31.90
197320,500,32.55
197335,493,33.84
197350,508,32.23
197365,509,34.16
197380,517,33.84
197395,528,34.16
197410,538,33.19
197425,545,33.84
197440,541,34.16
197455,550,32.23
197470,537,33.84
197485,531,33.84
197500,533,32.87
197515,521,33.52
197530,516,33.84
197545,501,33.19
197560,500,34.16
197575,495,33.19
197590,484,33.52
197605,486,34.48
197620,491,32.87
197635,494,33.52
197650,492,34.16
197665,498,33.84
197680,502,34.16
197695,496,34.16
197710,506,33.19
197725,500,33.84
197740,502,33.52
197755,502,33.84
197770,504,33.84
197785,502,34.16
197800,494,33.84
197815,500,34.16
197830,493,34.16
197845,495,33.52
197860,493,33.84
197875,495,33.84
197890,489,33.52
197905,499,33.84
197920,499,33.52
197935,499,33.84
197950,515,33.84
197965,523,32.87
197980,535,33.84
197995,536,34.16
198010,537,34.16
198025,544,34.16
198040,546,33.84
198055,535,33.84
198070,534,34.16
198085,522,34.16
198100,523,32.87
198115,516,32.23
198130,506,33.84
198145,503,32.87
198160,496,33.19
198175,491,33.19
198190,494,33.19
198205,494,33.52
198220,498,33.52
198235,487,33.84
198250,504,33.19
198265,497,34.48
198280,505,32.23
198295,506,34.16
198310,505,33.19
198325,499,33.84
198340,508,34.16
198355,504,34.16
198370,498,33.84
198385,501,33.84
198400,494,33.84
198415,502,32.87
198430,500,34.16
198445,502,33.84
198460,496,34.16
198475,503,33.84
198490,506,33.52
198505,509,32.87
198520,518,32.23
198535,520,33.84
198550,539,32.55
198565,544,34.16
198580,553,33.84
198595,547,32.87
198610,556,33.84
198625,554,33.52
198640,539,33.84
198655,533,34.48
198670,533,32.87
198685,519,34.16
198700,518,32.55
198715,511,34.16
198730,508,32.55
198745,493,32.87
198760,499,33.84
198775,500,32.55
198790,494,33.84
198805,506,33.84
198820,504,32.87
198835,505,32.87
198850,510,33.52
198865,510,33.84
198880,511,34.16
198895,512,32.87
198910,514,32.55
198925,505,33.84
198940,502,34.16
198955,507,32.55
198970,506,33.52
198985,505,32.87
199000,502,33.84
199015,498,32.87
199030,501,34.16
199045,501,33.52
199060,504,34.16
199075,507,34.16
199090,513,32.87
199105,520,34.16
199120,529,34.48
199135,538,34.16
199150,549,33.84
199165,553,33.84
199180,548,33.84
199195,557,33.52
199210,549,34.48
199225,546,34.16
199240,539,34.16
199255,528,34.16
199270,515,33.52
199285,517,33.52
199300,507,33.84
199315,499,33.84
199330,502,33.84
199345,498,33.84
199360,501,33.84
199375,502,32.87
199390,502,33.19
199405,503,33.52
199420,499,32.55
199435,501,33.84
199450,507,32.55
199465,508,33.84
199480,507,33.84
199495,507,33.19
199510,502,33.84
199525,506,32.87
199540,501,32.55
199555,506,33.84
199570,505,32.55
199585,506,33.19
199600,506,33.84
199615,500,33.84
199630,503,34.16
199645,497,33.19
199660,507,33.52
199675,507,34.16
199690,517,34.16
199705,526,33.84
199720,537,32.87
199735,539,33.84
199750,549,33.52
199765,552,34.16
199780,551,34.16
199795,548,33.84
199810,540,32.55
199825,524,31.90
199840,523,34.16
199855,515,34.16
199870,501,33.84
199885,502,33.84
199900,499,32.87
199915,486,33.52
199930,494,32.55
199945,493,34.16
199960,495,34.16
199975,492,33.52
199990,502,33.52
200005,507,32.23
200020,506,32.55
200035,512,32.55
200050,510,33.52
200065,514,32.55
200080,502,33.19
200095,502,33.52
200110,501,33.84
200125,506,33.52
200140,503,34.16
200155,504,32.23
200170,502,32.87
200185,501,33.19
200200,496,34.48
200215,500,33.84
200230,504,32.55
200245,509,32.55
200260,506,34.16
200275,516,33.52
200290,528,34.80
200305,541,32.55
200320,548,33.19
200335,550,32.55
200350,553,32.23
200365,542,34.16
200380,540,34.16
200395,540,34.16
200410,526,33.84
200425,526,32.55
200440,521,32.87
200455,506,33.84
200470,505,33.84
200485,496,34.16
200500,498,33.84
200515,501,32.55
200530,501,32.55
200545,498,34.16
200560,506,32.87
200575,509,32.87
200590,508,34.48
200605,508,32.87
200620,507,34.16
200635,505,34.16
200650,513,34.48
200665,511,33.84
200680,506,33.52
200695,500,33.52
200710,498,33.84
200725,507,33.19
200740,505,32.55
200755,504,33.84
200770,498,33.84
200785,495,33.84
200800,505,31.90
200815,495,33.52
200830,506,32.23
200845,512,33.84
200860,521,32.55
200875,531,33.84
200890,540,33.19
200905,548,33.19
200920,546,33.84
200935,555,33.84
200950,546,33.84
200965,549,34.48
200980,544,33.19
200995,538,34.16
201010,524,33.84
201025,524,32.23
201040,516,33.84
201055,510,34.16
201070,506,34.16
201085,498,33.84
201100,493,34.16
201115,502,32.55
201130,502,33.84
201145,503,33.84
201160,506,32.87
201175,507,32.87
201190,509,33.84
201205,509,34.16
201220,502,33.52
201235,506,33.52
201250,507,33.84
201265,508,32.23
201280,506,32.23
201295,502,33.19
201310,504,33.19
201325,505,33.52
201340,503,32.23
201355,499,33.84
201370,503,32.23
201385,502,34.16
201400,496,33.84
201415,504,32.23
201430,510,32.87
201445,516,32.23
201460,521,34.16
201475,532,33.84
201490,536,33.84
201505,545,33.84
201520,550,33.19
201535,545,34.48
201550,547,33.84
201565,533,33.84
201580,533,32.23
201595,526,34.16
201610,513,33.84
201625,508,34.16
201640,503,33.84
201655,500,34.16
201670,498,32.55
201685,496,33.84
201700,496,33.84
201715,495,32.55
201730,496,34.16
201745,503,32.23
201760,495,33.84
201775,499,33.52
201790,507,32.87
201805,499,33.52
201820,505,32.23
201835,499,33.52
201850,500,34.16
201865,503,32.55
201880,503,32.55
201895,496,33.84
201910,496,34.16
201925,493,34.16
201940,498,33.84
201955,499,33.84
201970,494,32.87
201985,494,33.84
202000,504,32.55
202015,499,33.84
202030,507,34.16
202045,524,33.84
202060,530,34.16
202075,541,32.55
202090,546,32.23
202105,545,34.16
202120,545,34.48
202135,538,33.52
202150,533,33.84
202165,535,32.87
202180,525,32.55
202195,519,33.84
202210,508,34.16
202225,500,33.84
202240,503,34.16
202255,499,34.16
202270,500,32.87
202285,496,33.84
202300,506,32.87
202315,508,33.19
202330,512,34.16
202345,518,32.55
202360,516,33.84
202375,519,34.16
202390,519,33.52
202405,519,32.87
202420,511,34.48
202435,511,34.16
202450,509,32.55
202465,506,33.84
202480,506,33.84
202495,501,34.16
202510,496,34.16
202525,501,32.55
202540,502,33.84
202555,503,33.52
202570,504,32.55
202585,503,33.84
202600,511,33.84
202615,521,32.55
202630,535,34.16
202645,546,31.90
202660,555,33.19
202675,559,33.52
202690,563,33.19
202705,556,33.84
202720,552,33.84
202735,545,34.16
202750,535,33.52
202765,530,33.19
202780,521,33.52
202795,514,32.87
202810,500,33.84
202825,502,33.84
202840,493,33.84
202855,499,33.84
202870,493,33.84
202885,495,34.16
202900,500,34.48
202915,504,31.90
202930,503,33.84
202945,504,34.16
202960,510,33.84
202975,514,33.84
202990,512,33.84
203005,513,32.55
203020,502,33.19
203035,510,33.19
203050,506,34.16
203065,505,33.52
203080,495,33.52
203095,500,32.55
203110,489,33.84
203125,491,34.16
203140,498,31.90
203155,494,34.16
203170,498,34.16
203185,503,34.48
203200,514,33.19
203215,527,32.55
203230,533,34.16
203245,543,32.87
203260,547,32.23
203275,544,34.48
203290,543,34.16
203305,537,34.16
203320,528,34.48
203335,525,32.87
203350,518,34.16
203365,513,32.55
203380,501,32.87
203395,493,33.84
203410,498,34.16
203425,486,33.52
203440,489,33.84
203455,495,32.23
203470,496,31.58
203485,491,33.84
203500,495,33.84
203515,502,32.23
203530,503,34.16
203545,506,33.52
203560,506,32.55
203576,497,33.84
203591,501,33.84
203606,507,32.87
203621,499,33.84
203636,505,31.90
203651,503,32.87
203667,503,34.48
203682,502,33.84
203697,498,33.84
203712,497,33.19
203727,497,34.16
203742,501,32.87
203758,505,33.19
203774,505,34.48
203789,512,34.16
203805,531,33.84
203821,540,32.87
203836,551,32.55
203852,553,32.55
203867,553,32.87
203883,544,33.52
203899,539,33.84
203914,537,32.87
203930,533,32.23
203946,526,32.55
203961,510,33.52
203977,506,33.52
203992,504,34.16
204008,505,33.84
204024,496,34.16
204040,503,34.16
204056,500,34.16
204072,504,34.48
204087,508,33.84
204103,510,33.19
204119,507,34.48
204134,513,34.16
204150,512,32.87
204166,511,34.16
204182,512,33.84
204198,507,34.16
204214,506,32.55
204230,503,33.84
204246,502,34.16
204262,498,34.16
204278,501,33.52
204294,494,33.84
204310,496,33.52
204326,498,31.90
204342,495,34.48
204358,504,33.84
204374,520,33.84
204390,530,34.16
204406,535,34.16
204422,548,32.23
204438,552,34.16
204454,549,33.84
204470,544,33.52
204486,542,33.52
204502,532,33.84
204518,516,33.84
204534,518,33.84
204549,511,32.87
204565,498,33.84
204581,503,31.90
204596,496,33.84
204612,499,33.52
204627,502,34.16
204643,495,33.52
204659,500,33.84
204674,497,33.84
204690,501,33.52
204705,508,32.55
204721,503,33.84
204737,502,33.84
204752,503,33.84
204768,501,33.52
204784,501,33.84
204799,500,33.52
204815,496,33.19
204830,501,33.52
204846,500,32.23
204861,499,34.48
204877,498,33.52
204893,496,33.84
204908,499,32.55
204924,491,33.84
204940,502,33.84
204955,509,32.23
204971,519,32.55
204986,526,33.52
205002,538,33.19
205018,538,34.16
205033,545,34.16
205049,541,32.87
205064,528,34.16
205079,523,33.84
205094,522,32.87
205109,512,33.84
205124,513,32.23
205140,504,33.19
205155,500,33.19
205170,488,34.16
205185,491,33.84
205200,490,33.84
205215,494,33.52
205230,488,34.16
205245,496,33.84
205260,495,34.16
205275,496,34.16
205290,500,33.84
205305,501,37.38
205320,502,33.84
205335,495,33.52
205350,504,32.55
205365,504,33.19
205380,497,33.84
205395,502,32.23
205410,497,34.16
205425,497,33.84
205440,496,32.55
205455,489,34.48
205470,486,33.84
205485,495,33.84
205500,493,34.16
205515,502,32.87
205530,510,32.55
205545,517,33.84
205560,534,32.87
205575,537,34.16
205590,546,32.23
205605,546,34.80
205620,541,34.16
205635,544,32.23
205650,540,34.16
205665,525,33.84
205680,529,33.52
205695,518,32.87
205710,507,33.52
205725,503,33.52
205740,505,34.16
205755,499,34.16
205770,500,34.16
205785,500,32.23
205800,496,34.48
205815,506,32.87
205830,501,33.84
205845,508,34.16
205860,503,34.16
205875,508,33.52
205890,509,34.16
205905,511,32.23
205920,505,34.16
205935,509,33.84
205950,506,33.52
205965,510,34.16
205980,506,31.90
205995,502,33.52
206011,494,33.84
206026,494,33.84
206041,497,31.90
206056,500,32.87
206071,499,33.84
206086,490,33.84
206102,502,34.16
206117,521,33.84
206132,529,32.23
206147,535,34.16
206162,546,32.87
206177,549,34.16
206193,547,34.16
206209,551,33.52
206224,548,32.87
206240,541,32.55
206255,535,34.16
206270,533,32.87
206285,529,32.87
206301,522,33.19
206317,517,32.87
206333,509,33.84
206348,514,33.52
206363,510,33.84
206379,501,33.84
206395,503,33.52
206410,510,32.23
206426,510,33.19
206442,508,33.84
206457,503,33.52
206473,514,32.55
206488,512,32.23
206504,510,34.16
206520,503,34.16
206535,505,34.16
206551,506,31.90
206567,499,33.84
206583,503,34.16
206599,500,33.52
206615,501,32.23
206631,501,33.84
206647,499,33.84
206663,507,33.19
206679,503,33.84
206695,521,32.87
206711,526,33.84
206727,535,32.23
206743,538,33.19
206759,541,34.16
206775,541,34.48
206791,541,32.87
206807,532,33.84
206823,528,32.87
206839,521,33.19
206855,512,34.16
206871,504,33.52
206887,499,33.84
206902,493,33.52
206918,502,33.52
206934,494,32.87
206950,500,32.87
206966,502,32.23
206982,503,33.19
206997,505,33.52
207013,506,32.55
207029,510,33.52
207045,500,33.84
207061,507,31.90
207077,507,34.48
207092,505,32.23
207108,500,33.52
207123,503,33.84
207139,501,32.55
207155,500,33.19
207170,500,34.16
207186,498,34.16
207201,498,32.55
207217,492,33.84
207233,502,33.19
207248,498,33.52
207264,512,32.87
207279,520,32.87
207295,527,34.16
207311,542,32.55
207326,541,33.84
207342,547,33.52
207357,539,34.16
207372,540,34.48
207387,527,34.16
207402,528,33.84
207417,521,33.52
207433,504,33.84
207448,496,34.16
207463,502,32.55
207478,496,32.87
207493,494,33.19
207508,497,32.55
207523,501,31.90
207538,499,32.87
207553,506,33.19
207568,510,32.55
207583,504,34.16
207598,514,32.23
207614,513,32.23
207629,513,33.52
207644,511,34.16
207659,511,32.23
207674,504,34.16
207689,507,34.16
207704,507,33.84
207719,501,33.84
207734,503,32.23
207749,501,34.16
207764,499,33.84
207779,496,33.84
207794,502,32.87
207809,496,33.84
207824,508,32.87
207839,510,34.16
207854,525,33.19
207869,531,34.48
207884,535,33.84
207899,544,32.87
207914,540,34.16
207929,548,32.87
207944,545,33.52
207959,537,34.48
207974,533,34.16
207989,524,33.52
208004,526,34.48
208019,520,33.52
208034,514,33.84
208049,509,34.48
208064,505,32.23
208079,499,34.16
208094,501,32.87
208109,496,33.84
208124,499,34.16
208139,495,33.84
208154,497,33.84
208169,501,33.84
208184,509,32.55
208199,510,33.84
208214,510,32.55
208229,510,33.19
208244,510,32.87
208259,507,34.48
208274,507,33.84
208289,502,34.16
208304,503,32.55
208319,502,34.16
208334,503,32.87
208349,500,33.84
208364,494,34.16
208379,499,34.16
208394,503,32.55
208409,513,33.52
208424,513,34.16
208439,527,34.48
208455,532,33.84
208470,543,32.55
208485,541,33.84
208500,540,33.19
208515,544,32.55
208530,535,32.87
208546,531,31.58
208561,525,32.87
208576,513,34.16
208591,512,33.84
208606,505,34.16
208621,502,34.16
208637,495,34.16
208653,497,33.84
208668,494,33.19
208684,498,32.23
208699,499,32.23
208715,500,34.16
208731,505,33.52
208746,506,34.16
208762,505,32.55
208778,502,33.19
208793,503,34.48
208809,505,32.23
208824,498,32.55
208840,499,32.23
208856,494,33.52
208871,498,33.84
208887,495,34.16
208903,497,33.19
208918,492,33.84
208934,497,33.84
208949,493,33.84
208965,503,32.87
