,BVP_min,BVP_max,BVP_mean,BVP_std,BVP_n_peak,BVP_peak_f,BVP_weight_amp_avg,BVP_weight_energy_avg,BVP_power_entropy,TEMP_min,TEMP_max,TEMP_mean,TEMP_std,labels
0,-43.940400222578575,32.28273877536108,-0.09423360443757399,16.59301905444678,0.9333333333333333,1.7333333333333334,3.507997567728689,2.621132366110272,2.8927971776359658,33.502563235492595,33.57144457788897,33.53476047171679,0.016931916915290165,1.0
1,-43.940400222578575,42.76950191199891,0.0017490052800013312,16.708313595066794,1.1333333333333333,1.7333333333333334,3.454754265853783,2.6070490043435552,2.729514580794901,33.502563235492595,33.57144457788897,33.5315285928761,0.017197697926416344,1.0
2,-43.940400222578575,42.76950191199891,0.026535128740311314,16.583190435184022,1.3,1.7333333333333334,3.418093352222098,2.587585226289674,2.617080260508373,33.48966344920113,33.57144457788897,33.528857631788945,0.018019898488179517,1.0
3,-43.940400222578575,42.76950191199891,0.0197398348577279,16.447066672956066,1.5,1.7333333333333334,3.4907612942455692,2.580050094286673,2.509880360654592,33.42942462104359,33.57144457788897,33.51952020857834,0.03105561970345071,1.0
4,-43.940400222578575,42.76950191199891,-0.06053897494620012,16.547947900954888,1.6333333333333333,1.7333333333333334,3.546296402413463,2.580202728225504,2.452766716676564,33.428145732683014,33.57144457788897,33.51248041542218,0.03604361476579518,1.0
5,-43.940400222578575,42.76950191199891,-0.041674690943729366,16.45770615534175,1.8,1.7333333333333334,3.5069837566766915,2.586313785076365,2.4743875654886893,33.428145732683014,33.57144457788897,33.51142845250589,0.03467617998814063,1.0
6,-38.994769411833516,42.76950191199891,0.029903978033621312,16.27159958707896,1.8666666666666667,1.7333333333333334,3.536495133913356,2.603176805572969,2.639104524388365,33.428145732683014,33.57144457788897,33.50378839396116,0.03636467250531678,1.0
7,-38.994769411833516,42.76950191199891,-0.04163834079279688,16.272149911281065,1.8666666666666667,1.7666666666666666,3.6231171387941443,2.6298403796983902,2.735400962412905,33.428145732683014,33.56883552365309,33.495405900157124,0.03373376247808691,1.0
8,-38.994769411833516,42.76950191199891,0.01495267306565399,16.082317941368675,1.8333333333333333,1.7666666666666666,3.6440169812997616,2.6536240832518176,2.6703035976306038,33.428145732683014,33.58210138763751,33.49559319782005,0.03410662434778378,1.0
9,-43.69615012268717,42.76950191199891,0.08726582863246975,16.168996922095527,1.8666666666666667,1.7666666666666666,3.522617854198707,2.669034379787368,2.6146286505626497,33.428145732683014,33.590691611243265,33.50140849454082,0.04238049674818921,1.0
10,-43.69615012268717,42.76950191199891,0.06650809846303403,16.161793864899845,1.8666666666666667,1.8,3.544675671985233,2.6803216798907608,2.7067003197807287,33.428145732683014,33.61910799751461,33.507802746877296,0.050189287458874424,1.0
11,-43.69615012268717,30.84439551481245,1.2848068286945513e-05,16.22908633761291,1.9666666666666666,1.8,3.5619923346864892,2.686071426700504,2.85972104340449,33.428145732683014,33.61910799751461,33.5071452845044,0.05081571898419685,1.0
12,-44.491482996581375,31.259616679767124,-0.006245353652576903,16.550300897673424,2.0,1.8,3.484245498310239,2.6783065471166307,3.0892942509104473,33.428145732683014,33.61910799751461,33.50896425925784,0.05192483210590259,1.0
13,-44.491482996581375,31.653090692852302,0.011189541218394248,16.84115415801654,1.9666666666666666,1.8,3.4836557217467026,2.6487767461491103,3.299336262673068,33.428145732683014,33.61910799751461,33.51703957738107,0.04890379700464038,1.0
14,-44.491482996581375,31.653090692852302,0.08548868855909036,16.874266664135565,1.9666666666666666,1.7,3.5203681393424398,2.6049543979555225,3.2619028686604445,33.43596814695841,33.61910799751461,33.522875896886184,0.04451707584500053,1.0
15,-44.491482996581375,31.653090692852302,0.06992385521783845,16.951172968163693,2.0,1.7,3.4812822879722383,2.572061556458146,3.11258386912195,33.43596814695841,33.61910799751461,33.52167741107119,0.04503665735582276,1.0
16,-44.491482996581375,31.653090692852302,-0.04624066357239335,17.18691160725479,2.0,1.7,3.5404527578744314,2.572269602701538,3.145635004762468,33.44260453985881,33.61910799751461,33.530947200823135,0.040982460835887996,1.0
17,-44.491482996581375,31.653090692852302,0.03813055411927755,17.43144697737144,2.0,1.7333333333333334,3.5021653083608677,2.6002474392395887,3.222844881312445,33.46408877911477,33.61910799751461,33.535196302871405,0.03776109658211824,1.0
18,-44.491482996581375,31.653090692852302,0.07204188431680093,17.566519123597917,2.0,1.7333333333333334,3.4763527238918486,2.633254857707524,3.1448048688850005,33.46408877911477,33.61910799751461,33.531784884606324,0.039014300170084525,1.0
19,-44.491482996581375,31.653090692852302,0.009398942695358388,17.445833912618987,1.9666666666666666,1.7333333333333334,3.5610160675094575,2.6505482663333932,3.0107766958540183,33.46408877911477,33.61910799751461,33.529486037714285,0.03687318263858476,1.0
20,-44.491482996581375,31.653090692852302,-0.10954042221352071,17.600086795385124,1.9,1.7666666666666666,3.4220687150620632,2.6475496521099275,3.047531065516627,33.46408877911477,33.602977179969656,33.529328250911306,0.03579673653870807,1.0
21,-44.491482996581375,31.653090692852302,-0.0459675103292532,17.535952460842456,1.8333333333333333,1.7666666666666666,3.526339534874183,2.640578019087432,3.0805858408207385,33.46408877911477,33.602977179969656,33.53501201901043,0.03567850266921278,1.0
22,-43.09472807129772,31.653090692852302,-0.007479680109609491,17.378315711556723,1.8,1.7666666666666666,3.47693291495134,2.6393946642658346,2.9371589284835276,33.46469335887659,33.602977179969656,33.535114387979235,0.03501577062246097,1.0
23,-43.09472807129772,30.053353491400856,-0.015348020134387543,17.17155776711309,1.8,1.7666666666666666,3.4398138395183446,2.637571557862874,2.9019254692872147,33.46469335887659,33.602977179969656,33.53104901932688,0.036777215520008955,1.0
24,-41.17136888541128,30.053353491400856,0.0010739488813402383,16.895654508828294,1.8333333333333333,1.7666666666666666,3.4422455350882757,2.6288903632727876,2.9189701854032113,33.46469335887659,33.602977179969656,33.53060482626453,0.037039265114567024,1.0
25,-41.17136888541128,30.053353491400856,-0.06777748044123391,16.931695635576332,1.8,1.7333333333333334,3.5569479956809644,2.6208559362016204,2.7448138982924672,33.46469335887659,33.602977179969656,33.530981887978136,0.036732778326616845,1.0
26,-41.17136888541128,29.26658816656372,-0.021983854368197615,16.939997521291808,1.7666666666666666,1.7333333333333334,3.636483939082318,2.624216969021984,2.654586266295468,33.46469335887659,33.602977179969656,33.52855969087155,0.03600688192257306,1.0
27,-42.282231249420306,29.26658816656372,0.019653582156154835,16.930615261009013,1.8,1.7333333333333334,3.4812327576137756,2.6346689367595113,2.7974629422269515,33.415398119839764,33.602977179969656,33.52203945827569,0.042562235937755113,1.0
28,-42.282231249420306,29.26658816656372,0.0031235245003855424,16.93469485439718,1.7666666666666666,1.7666666666666666,3.362189803901072,2.6385780279742725,2.8185610400252656,33.39840969242647,33.602977179969656,33.51496819065222,0.05158034437636967,1.0
29,-42.282231249420306,29.26658816656372,-0.07626323061238059,16.950621187655514,1.7666666666666666,1.7666666666666666,3.578023985017956,2.629162496102665,2.631994849020709,33.39840969242647,33.602977179969656,33.50849728087347,0.049789150232432106,1.0
30,-43.59637852961874,31.705968659334317,0.10376577980486276,17.19570439014961,1.8,1.7666666666666666,3.4978053102814846,2.6172173729418073,2.4661609287855644,33.39840969242647,33.5748510926001,33.49882444998437,0.04227456033998731,1.0
31,-43.59637852961874,33.00005358627213,0.08163882563517048,17.3189927654382,1.8,1.8,3.6036002610298024,2.6175419447296426,2.3618711109493873,33.39840969242647,33.568582838393276,33.48960228046472,0.03669234830853841,1.0
32,-43.59637852961874,33.00005358627213,0.027819348964045677,17.23963090992691,1.7666666666666666,1.7666666666666666,3.5660525398752903,2.6279294872109142,2.2961774670497754,33.39840969242647,33.547155156065884,33.48407733173006,0.034085424844785606,1.0
33,-43.59637852961874,33.00005358627213,0.005636406243947714,17.224318904338787,1.8,1.7666666666666666,3.6165205171418346,2.6374472146183567,2.3595885111625843,33.39840969242647,33.547155156065884,33.47702523110068,0.0383520459290988,1.0
34,-43.59637852961874,33.00005358627213,-0.0993912206128341,17.484460651197104,1.7666666666666666,1.7666666666666666,3.537355520633869,2.635233697540959,2.5287499780379004,33.39840969242647,33.547155156065884,33.47451159069812,0.03704627126761609,1.0
35,-43.59637852961874,33.00005358627213,-0.020333205607724926,17.425262741714576,1.8666666666666667,1.7666666666666666,3.6081611934392597,2.6219406667869936,2.6471477862151604,33.39840969242647,33.547155156065884,33.47689510571747,0.038936724399456404,1.0
36,-49.314281870606024,48.17518084632247,-0.018634332357105755,17.755954078112996,1.8333333333333333,1.7666666666666666,3.5984030990972458,2.611228318037725,2.682335857278709,33.39840969242647,33.54531820641098,33.47588144162302,0.03774204737290667,1.0
37,-49.314281870606024,48.17518084632247,-0.023851974305311288,18.005994585802494,1.8666666666666667,1.7666666666666666,3.5913053770113335,2.619297383768157,2.842359902889612,33.39840969242647,33.55473036534319,33.485764143487366,0.041086701142016874,1.0
38,-49.314281870606024,48.17518084632247,-0.047243415962791475,18.143559869520754,1.8666666666666667,1.7333333333333334,3.5993569698478267,2.6548351173792697,3.0958161557824475,33.40214046133436,33.57145491246338,33.49781240238587,0.039186113442053076,1.0
39,-49.314281870606024,48.17518084632247,0.014312900402288583,18.399202717804194,1.9333333333333333,1.7333333333333334,3.5978436266387215,2.694059278605971,3.2937951927889833,33.40214046133436,33.57145491246338,33.498181362583715,0.039307608685156085,1.0
40,-49.314281870606024,48.17518084632247,-0.02162032543069558,18.319924001774762,2.0,1.7333333333333334,3.552133932766818,2.702027936346937,3.2931854429540404,33.40214046133436,33.57145491246338,33.49496884881054,0.04060728828304997,1.0
41,-49.314281870606024,48.17518084632247,-0.01361302310525238,18.21987449889769,2.033333333333333,1.7,3.4819149158467697,2.672260723457782,3.1195942289655703,33.40214046133436,33.57145491246338,33.493037043558076,0.04197903837626773,1.0
42,-49.314281870606024,48.17518084632247,-0.03479419698618166,18.173874586562903,2.066666666666667,1.7,3.479120498953975,2.6256930122743607,2.899634978642594,33.40214046133436,33.57145491246338,33.49243600807033,0.04179150428432936,1.0
43,-49.314281870606024,48.17518084632247,0.0018898549221443206,18.26003270364321,2.033333333333333,1.7,3.5125776564095608,2.5892302171289057,2.622281266432541,33.43404454538867,33.57145491246338,33.499589787412226,0.034852946437483205,1.0
44,-49.314281870606024,48.17518084632247,0.07871395588307382,18.236174224157487,2.1,1.7,3.487920966036442,2.5792515467978325,2.322131503424108,33.43404454538867,33.57145491246338,33.49540147977656,0.03816861852367201,1.0
45,-49.78033633036978,48.17518084632247,0.09794544024599088,18.36164013219585,2.066666666666667,1.7,3.553548284980852,2.596037717918045,2.224843070820116,33.43404454538867,33.57145491246338,33.48776444483543,0.04023363206675516,1.0
46,-49.78033633036978,36.25694594958584,0.07115828764327042,17.948879248467648,2.1,1.7,3.579883723553618,2.6196595444495254,2.3883749352622243,33.431286560003194,33.57145491246338,33.48156962977006,0.03959392728194019,1.0
47,-49.78033633036978,31.08260070716408,0.03738616652494126,17.551591286373643,2.1,1.7,3.577041747116709,2.6293059420451885,2.534965566085354,33.431286560003194,33.57145491246338,33.47236939453814,0.034204573539484334,1.0
48,-49.78033633036978,32.14586749744146,0.03658378041948772,17.46801560215402,2.066666666666667,1.7,3.507272549040928,2.6174392811320315,2.6053555940170687,33.35360222785267,33.52057902835175,33.455514700510825,0.035043418027090247,1.0
49,-49.78033633036978,32.14586749744146,0.06729886816304341,17.197029825051548,2.033333333333333,1.7,3.4334505076380943,2.600060597620394,2.709724375669344,33.35360222785267,33.51224475336224,33.447391765585444,0.03351788272181954,1.0
50,-49.78033633036978,32.14586749744146,0.027782238746252904,17.07422727251511,2.1,1.7,3.365174248114301,2.5970326027824915,2.8788222673351562,33.35360222785267,33.51224475336224,33.44770906927339,0.033926396150227384,1.0
51,-49.78033633036978,34.283805747553174,0.009481481292505624,17.24292505835459,2.1333333333333333,1.7,3.33628494159505,2.6110811906887728,3.0127945189037195,33.35360222785267,33.51224475336224,33.447141557785244,0.033563658918629495,1.0
52,-49.78033633036978,34.283805747553174,0.0197321682280459,17.469500027062193,2.1,1.7,3.3764292018969613,2.6249921263511395,3.173207313732483,33.35360222785267,33.51224475336224,33.44296837506556,0.03266081849955684,1.0
53,-49.78033633036978,34.283805747553174,0.004117677574478159,17.46205613327522,2.1333333333333333,1.6333333333333333,3.362979899659488,2.622477161170252,3.199560562846803,33.35360222785267,33.494141164802954,33.435680638569636,0.02830865758148375,1.0
54,-49.78033633036978,34.283805747553174,0.017483331620794622,17.46354343180582,2.033333333333333,1.6666666666666667,3.5283120508605634,2.611100354986286,3.042173381038177,33.35360222785267,33.494141164802954,33.43373186101191,0.029139109271438413,1.0
55,-42.708982354537724,34.283805747553174,-0.012689470397187695,17.48970081574588,2.033333333333333,1.6666666666666667,3.5365784184706683,2.609868826942276,3.010895171658207,33.35360222785267,33.494141164802954,33.43233985942133,0.02967192069133148,1.0
56,-42.708982354537724,34.283805747553174,0.028933201133914534,17.49557002441989,2.1333333333333333,1.6666666666666667,3.4273171655453205,2.6230625376674235,3.1768665212684217,33.266892732910705,33.494141164802954,33.4175322194074,0.046089295320435104,1.0
57,-42.708982354537724,34.283805747553174,-0.003854769021832521,17.654046576726426,2.1333333333333333,1.7333333333333334,3.449669972898795,2.635340376483991,3.219769410778364,33.266892732910705,33.494141164802954,33.40332590276722,0.0543795012703812,1.0
58,-42.92449262507124,34.283805747553174,0.014181408282583506,17.85049329970773,2.2333333333333334,1.7333333333333334,3.435006156590175,2.6275237472108115,3.184122676690776,33.266892732910705,33.494141164802954,33.40354328676553,0.05490866110271254,1.0
59,-42.92449262507124,34.283805747553174,0.0028546372038020023,18.041489811423453,2.3,1.7,3.356957260609549,2.5961563180273206,3.2372567385964777,33.266892732910705,33.494141164802954,33.40542797630919,0.05544257194535976,1.0
60,-42.92449262507124,34.283805747553174,-0.03320087149291105,17.97649199441963,2.3333333333333335,1.6666666666666667,3.416124189142718,2.5619350068364484,3.0734149512802342,33.266892732910705,33.471014223370744,33.39631706597762,0.05316470158844164,1.0
61,-48.03977477604428,33.18984836936006,-0.04858369109399913,17.89533830333253,2.3,1.6666666666666667,3.435672776070474,2.547941791792283,2.6787951269089207,33.266892732910705,33.454988785712715,33.387445364963696,0.05067942701564693,1.0
62,-48.03977477604428,35.53741918055326,-0.08191183668028955,17.872348787423658,2.3333333333333335,1.6666666666666667,3.51861124319824,2.5551609737570824,2.3384901073937625,33.266892732910705,33.454988785712715,33.383518434375546,0.04917249304551154,1.0
63,-48.03977477604428,35.53741918055326,-0.018293216973930264,18.014202517076882,2.3666666666666667,1.6666666666666667,3.4172759789561025,2.567839462397742,2.2280571755603042,33.266892732910705,33.454988785712715,33.37591798376405,0.04854528065343477,1.0
64,-48.03977477604428,35.53741918055326,0.007229261548992103,18.2766503241195,2.3333333333333335,3.3,3.4674650849581865,2.5699186563003886,2.3457619418355473,33.266892732910705,33.454988785712715,33.37015104208548,0.04588714915080143,1.0
65,-48.03977477604428,35.53741918055326,-0.007181704005341852,18.4440277861839,2.4,1.6666666666666667,3.345781346173969,2.5571658267905595,2.743187153065371,33.266892732910705,33.454988785712715,33.362696062458475,0.04113201333803748,1.0
66,-48.03977477604428,35.53741918055326,9.691424429108262e-05,18.586890346564115,2.3,1.6666666666666667,3.198541825104503,2.5409548912606184,3.124719839592856,33.28533392369858,33.454988785712715,33.367394038574915,0.03639722030829083,1.0
67,-48.03977477604428,35.53741918055326,-0.0008973297904217791,18.73136102735238,2.2666666666666666,1.7,3.2334197391227244,2.530809083857275,3.2178842281925397,33.32198771074843,33.454988785712715,33.37224983124027,0.030968089385071246,1.0
68,-48.03977477604428,35.53741918055326,-1.7641254146570558e-05,18.844912368953015,2.1666666666666665,1.7,3.2879304716371376,2.526677905858897,3.086105083424084,33.33124993965855,33.454988785712715,33.37270238925517,0.029352495512068113,1.0
69,-48.03977477604428,35.53741918055326,-0.02341105778357468,18.933340105364184,2.1,1.7,3.4904927570438935,2.5269191371148487,2.9766111577854435,33.33124993965855,33.43393278284838,33.36610738452346,0.021026832136591248,1.0
70,-48.03977477604428,39.937347227498556,-0.10432657707494201,19.263488461452496,2.0,1.7,3.42834481030184,2.5327954398063945,2.8752168787922687,33.29463303521942,33.42055356219088,33.36161408722736,0.022102205876866825,1.0
71,-45.621159076150924,39.937347227498556,-0.03752870512307625,19.234180117141047,1.9666666666666666,1.7333333333333334,3.5303022933123316,2.548383557282331,2.7757728905704084,33.29463303521942,33.42055356219088,33.35828493516742,0.025747748774595035,1.0
72,-51.03280940917077,39.937347227498556,0.08929432389173503,19.47008968673746,1.9,1.7333333333333334,3.499433398640365,2.565124559310477,2.6223692037036535,33.29463303521942,33.42211251466139,33.35997461027637,0.027477901500952143,1.0
73,-51.03280940917077,39.937347227498556,0.020290122292168505,19.495319970593467,1.9333333333333333,1.7333333333333334,3.4574563364549284,2.5738142962391524,2.515604282013051,33.29463303521942,33.42211251466139,33.36275966224262,0.027358856899470634,1.0
74,-51.03280940917077,39.937347227498556,-0.051120310947306374,19.450433660721583,1.9666666666666666,1.7333333333333334,3.4438742490869436,2.5824456373747147,2.564893682401686,33.29463303521942,33.42211251466139,33.365023878708975,0.028340651264580966,1.0
75,-51.03280940917077,39.937347227498556,0.016362002651034633,19.37179266640749,1.8666666666666667,1.7333333333333334,3.3830855925766645,2.610985588447204,2.8597268686051787,33.29463303521942,33.42211251466139,33.369724671060496,0.03010455812846741,1.0
76,-51.03280940917077,39.937347227498556,-0.07519762402457869,19.337601855540157,1.8666666666666667,1.7333333333333334,3.4741250563479014,2.6625547033761294,3.1683413177327413,33.29463303521942,33.42211251466139,33.37197334155212,0.029822036727773008,1.0
77,-51.03280940917077,39.937347227498556,-0.07313038153115645,19.242949510812505,1.8333333333333333,1.8333333333333333,3.4727277558501064,2.715992283748897,3.2157808241437875,33.29463303521942,33.42211251466139,33.374193559377325,0.029678511543900984,1.0
78,-51.03280940917077,39.937347227498556,-0.012736103671502373,19.02704514597853,1.8333333333333333,1.8333333333333333,3.4746550256253275,2.7490848575718396,3.0174808024270567,33.29463303521942,33.42211251466139,33.37440803899782,0.029834717095169896,1.0
79,-51.03280940917077,39.937347227498556,0.019097562510578495,19.113312280807097,1.8,1.8,3.6652666517262587,2.760589366911815,2.9600729970305952,33.29463303521942,33.44590094151901,33.3775330801047,0.03142707168594612,1.0
80,-51.03280940917077,37.92616014324169,0.07379213077531961,18.96000875802131,1.8,1.8,3.667342917997388,2.765152173580423,2.9910199293446786,33.30323964280152,33.49972405833226,33.392558168957386,0.0391166688008962,1.0
81,-51.03280940917077,37.92616014324169,-0.03231185353942126,18.929669527946963,1.7666666666666666,1.8,3.731494592074632,2.7687283482277993,2.7788076139529565,33.35912187564452,33.50187649873245,33.404170978467306,0.036229894075200705,1.0
82,-48.234825360350044,37.92616014324169,-0.045841605923422395,18.572077414553117,1.8,1.7666666666666666,3.7178190104643303,2.761282904945649,2.469910373954033,33.270745223271206,33.50187649873245,33.39632414634335,0.04362768760256208,1.0
83,-48.234825360350044,37.92616014324169,-0.009748201408652372,18.443020783235852,1.8,1.7666666666666666,3.6858897181598205,2.7357767359087566,2.3594790365853355,33.270745223271206,33.50187649873245,33.39204476057797,0.04808135556143625,1.0
84,-48.234825360350044,37.92616014324169,0.04922723471900101,18.208642006610763,1.7666666666666666,1.7666666666666666,3.6376401185143847,2.69831144692587,2.4684785614947895,33.270745223271206,33.50187649873245,33.39327622181367,0.04829897078951415,1.0
85,-48.234825360350044,37.92616014324169,-0.08153120035361074,18.237354109935204,1.7666666666666666,1.7666666666666666,3.59877224242148,2.664697168508987,2.630012216012414,33.270745223271206,33.50187649873245,33.39590870260394,0.04943013795113119,1.0
86,-48.234825360350044,37.92616014324169,0.06596469751636976,18.413431123980605,1.8,1.7666666666666666,3.6130361200618317,2.65433894640442,2.7421822899404806,33.270745223271206,33.50187649873245,33.39959512365689,0.04955795484453662,1.0
